t1,ch1,t2,ch2
-0.3767576645370441,1.0711516094207765,-0.3767575395370441,-0.5288349208831787
-0.3717576645370441,1.075136594772339,-0.3717575395370441,-0.5477775173187257
-0.3667576645370441,1.0661703777313234,-0.3667575395370441,-0.5447865810394288
-0.3617576645370441,1.080117826461792,-0.3617575395370441,-0.5268409633636475
-0.3567576645370441,1.0771290874481203,-0.3567575395370441,-0.4999225368499757
-0.3517576645370441,1.072147855758667,-0.3517575395370441,-0.4839708766937256
-0.3467576645370441,1.0691591167449952,-0.3467575395370441,-0.4550584926605225
-0.3417576645370441,1.0731441020965578,-0.3417575395370441,-0.39623674583435065
-0.3367576645370441,1.0711516094207765,-0.33675753953704407,-0.331433126449585
-0.3317576645370441,1.0771290874481203,-0.33175753953704407,-0.31049657249450685
-0.3267576645370441,1.0781253337860108,-0.32675753953704406,-0.2845751247406006
-0.32175766453704413,1.0741403484344483,-0.3217575395370441,-0.21877452659606936
-0.31675766453704407,1.072147855758667,-0.31675753953704405,-0.16693163108825684
-0.31175766453704407,1.0741403484344483,-0.31175753953704405,-0.12206758689880373
-0.30675766453704406,1.072147855758667,-0.30675753953704404,-0.0931552028656006
-0.30175766453704406,1.0711516094207765,-0.30175753953704404,-0.09016426658630372
-0.29675766453704405,1.0731441020965578,-0.29675753953704403,-0.07720354270935059
-0.29175766453704405,1.0771290874481203,-0.29175753953704403,-0.07221864891052247
-0.28675766453704404,1.0731441020965578,-0.286757539537044,-0.047294179916381844
-0.2817576645370441,1.0741403484344483,-0.2817575395370441,-0.02735460472106934
-0.2767576645370441,1.0741403484344483,-0.2767575395370441,-0.019378774642944338
-0.2717576645370441,1.0731441020965578,-0.27175753953704407,-0.019378774642944338
-0.2667576645370441,1.0741403484344483,-0.26675753953704406,-0.020375753402709963
-0.2617576645370441,1.0691591167449952,-0.26175753953704406,-0.02336668968200684
-0.2567576645370441,1.072147855758667,-0.25675753953704405,-0.02336668968200684
-0.25175766453704407,1.0691591167449952,-0.25175753953704405,-0.008412008285522462
-0.24675766453704404,1.0681628704071047,-0.24675753953704405,0.005545694351196289
-0.24175766453704403,1.0771290874481203,-0.24175753953704404,0.00953360939025879
-0.23675766453704403,1.0731441020965578,-0.23675753953704404,0.022494333267211918
-0.23175766453704405,1.0791215801239016,-0.23175753953704406,0.02548526954650879
-0.22675766453704405,1.0711516094207765,-0.22675753953704406,0.0035517368316650396
-0.22175766453704404,1.0711516094207765,-0.22175753953704405,-0.02536064720153809
-0.21675766453704404,1.075136594772339,-0.21675753953704405,-0.02934856224060059
-0.21175766453704403,1.072147855758667,-0.21175753953704404,-0.009408987045288086
-0.20675766453704403,1.0681628704071047,-0.20675753953704404,0.0035517368316650396
-0.20175766453704405,1.0711516094207765,-0.20175753953704406,0.006542673110961915
-0.19675766453704405,1.072147855758667,-0.19675753953704406,-0.005421072006225587
-0.19175766453704404,1.0711516094207765,-0.19175753953704405,-0.010405965805053713
-0.18675766453704404,1.067166624069214,-0.18675753953704405,-0.020375753402709963
-0.18175766453704403,1.0731441020965578,-0.18175753953704404,-0.02336668968200684
-0.17675766453704403,1.070155363082886,-0.17675753953704404,-0.030345541000366214
-0.17175766453704405,1.067166624069214,-0.17175753953704406,-0.03931834983825684
-0.16675766453704405,1.0731441020965578,-0.16675753953704406,-0.059257925033569345
-0.16175766453704404,1.0741403484344483,-0.16175753953704405,-0.09514916038513185
-0.15675766453704404,1.0681628704071047,-0.15675753953704405,-0.11807967185974122
-0.15175766453704403,1.075136594772339,-0.15175753953704404,-0.1449980983734131
-0.14675766453704403,1.067166624069214,-0.14675753953704404,-0.14300414085388186
-0.14175766453704403,1.0791215801239016,-0.14175753953704404,-0.14101018333435061
-0.13675766453704405,1.072147855758667,-0.13675753953704406,-0.16094975852966312
-0.13175766453704404,1.0711516094207765,-0.13175753953704405,-0.18188631248474124
-0.12675766453704404,1.072147855758667,-0.12675753953704405,-0.2157835903167725
-0.12175766453704405,1.0741403484344483,-0.12175753953704405,-0.20581380271911623
-0.11675766453704405,1.0731441020965578,-0.11675753953704404,-0.20880473899841312
-0.11175766453704405,1.0681628704071047,-0.11175753953704405,-0.22774733543396
-0.10675766453704405,1.070155363082886,-0.10675753953704405,-0.21478661155700687
-0.10175766453704405,1.0741403484344483,-0.10175753953704404,-0.21378963279724122
-0.09675766453704406,1.0731441020965578,-0.09675753953704405,-0.20980171775817874
-0.09175766453704405,1.070155363082886,-0.09175753953704405,-0.21179567527770998
-0.08675766453704405,1.070155363082886,-0.08675753953704404,-0.21079869651794436
-0.08175766453704406,1.0691591167449952,-0.08175753953704405,-0.22675035667419435
-0.07675766453704405,1.075136594772339,-0.07675753953704405,-0.23871410179138186
-0.07175766453704405,1.0731441020965578,-0.07175753953704404,-0.24469597434997561
-0.06675766453704406,1.0651741313934326,-0.06675753953704405,-0.24968086814880375
-0.061757664537044045,1.0691591167449952,-0.06175753953704405,-0.2327322292327881
-0.05675766453704404,1.0731441020965578,-0.056757539537044044,-0.1569618434906006
-0.05175766453704404,1.0711516094207765,-0.051757539537044046,0.0005608005523681641
-0.046757664537044046,1.0731441020965578,-0.04675753953704405,0.21491123390197756
-0.04175766453704404,1.0731441020965578,-0.041757539537044044,0.44421634864807136
-0.036757664537044044,1.0771290874481203,-0.03675753953704405,0.6386272068023683
-0.031757664537044046,1.0641778850555421,-0.03175753953704405,0.6635516757965089
-0.026757664537044045,1.0741403484344483,-0.026757539537044045,0.4192918796539307
-0.021757664537044048,1.072147855758667,-0.021757539537044047,0.05539463233947754
-0.01675766453704405,1.0741403484344483,-0.01675753953704405,-0.235723165512085
-0.011757664537044049,1.0741403484344483,-0.011757539537044049,-0.4161763210296631
-0.006757664537044047,1.0771290874481203,-0.006757539537044047,-0.48795879173278817
-0.0017576645370440474,1.075136594772339,-0.0017575395370440475,-0.4720071315765381
0.003242335462955953,1.0761328411102296,0.003242460462955953,-0.4231551723480225
0.008242335462955953,1.0741403484344483,0.008242460462955953,-0.3533666591644288
0.013242335462955952,1.075136594772339,0.013242460462955952,-0.2985328273773194
0.018242335462955953,1.072147855758667,0.018242460462955953,-0.267626485824585
0.023242335462955954,1.070155363082886,0.023242460462955954,-0.22774733543396
0.028242335462955955,1.0761328411102296,0.028242460462955955,-0.20082890892028812
0.033242335462955956,1.0761328411102296,0.03324246046295595,-0.17789839744567873
0.03824233546295596,1.0761328411102296,0.03824246046295596,-0.1679286098480225
0.04324233546295596,1.070155363082886,0.043242460462955955,-0.1529739284515381
0.048242335462955956,1.0681628704071047,0.04824246046295595,-0.15197694969177247
0.05324233546295596,1.067166624069214,0.05324246046295596,-0.13502831077575686
0.05824233546295596,1.072147855758667,0.058242460462955954,-0.12804945945739749
0.06324233546295595,1.0691591167449952,0.06324246046295595,-0.11409175682067872
0.06824233546295595,1.0711516094207765,0.06824246046295596,-0.1091068630218506
0.07324233546295596,1.0781253337860108,0.07324246046295596,-0.11010384178161622
0.07824233546295595,1.0781253337860108,0.07824246046295595,-0.09814009666442872
0.08324233546295595,1.072147855758667,0.08324246046295596,-0.08318541526794435
0.08824233546295596,1.0661703777313234,0.08824246046295596,-0.07421260643005372
0.09324233546295595,1.0761328411102296,0.09324246046295595,-0.048291158676147465
0.09824233546295595,1.0741403484344483,0.09824246046295596,-0.020375753402709963
0.10324233546295596,1.0761328411102296,0.10324246046295596,-0.009408987045288086
0.10824233546295595,1.0771290874481203,0.10824246046295595,0.0035517368316650396
0.11324233546295595,1.0731441020965578,0.11324246046295595,0.038445993423461916
0.11824233546295596,1.072147855758667,0.11824246046295596,0.05439765357971192
0.12324233546295596,1.0681628704071047,0.12324246046295596,0.06636139869689943
0.12824233546295596,1.070155363082886,0.12824246046295595,0.09028888893127443
0.13324233546295597,1.070155363082886,0.13324246046295596,0.11222242164611818
0.13824233546295597,1.0761328411102296,0.13824246046295596,0.13515293312072754
0.14324233546295598,1.0771290874481203,0.14324246046295597,0.16007740211486818
0.14824233546295595,1.0791215801239016,0.14824246046295594,0.1919807224273682
0.15324233546295596,1.0711516094207765,0.15324246046295595,0.20693540382385256
0.15824233546295596,1.0731441020965578,0.15824246046295595,0.2398357028961182
0.16324233546295597,1.070155363082886,0.16324246046295596,0.2797148532867432
0.16824233546295597,1.0741403484344483,0.16824246046295596,0.3036423435211182
0.17324233546295598,1.0771290874481203,0.17324246046295597,0.34152753639221195
0.17824233546295598,1.0791215801239016,0.17824246046295597,0.3634610691070557
0.18324233546295596,1.072147855758667,0.18324246046295595,0.37343085670471193
0.18824233546295596,1.0741403484344483,0.18824246046295595,0.39237345314025884
0.19324233546295597,1.072147855758667,0.19324246046295596,0.38040970802307134
0.19824233546295597,1.072147855758667,0.19824246046295596,0.36545502662658697
0.20324233546295598,1.0711516094207765,0.20324246046295597,0.3225849399566651
0.20824233546295598,1.070155363082886,0.20824246046295597,0.2837027683258057
0.21324233546295596,1.072147855758667,0.21324246046295595,0.22787195777893068
0.21824233546295596,1.070155363082886,0.21824246046295595,0.15210157203674318
0.22324233546295597,1.072147855758667,0.22324246046295596,0.07433722877502442
0.22824233546295597,1.0711516094207765,0.22824246046295596,0.021497354507446293
0.23324233546295597,1.0711516094207765,0.23324246046295596,-0.030345541000366214
0.23824233546295598,1.072147855758667,0.23824246046295597,-0.07919750022888185
0.24324233546295598,1.0741403484344483,0.24324246046295597,-0.1250585231781006
0.24824233546295596,1.070155363082886,0.24824246046295595,-0.1729135036468506
0.25324233546295594,1.0731441020965578,0.25324246046295595,-0.1968409938812256
0.25824233546295594,1.0681628704071047,0.25824246046295596,-0.2237594203948975
0.26324233546295595,1.075136594772339,0.26324246046295596,-0.23173525047302249
0.26824233546295595,1.070155363082886,0.26824246046295597,-0.23771712303161624
0.27324233546295595,1.0741403484344483,0.27324246046295597,-0.24369899559021
0.27824233546295596,1.0711516094207765,0.278242460462956,-0.25466576194763185
0.28324233546295596,1.0691591167449952,0.283242460462956,-0.25067784690856937
0.28824233546295597,1.070155363082886,0.288242460462956,-0.251674825668335
0.2932423354629559,1.080117826461792,0.29324246046295593,-0.24369899559021
0.2982423354629559,1.0741403484344483,0.29824246046295594,-0.2476869106292725
0.3032423354629559,1.0711516094207765,0.30324246046295594,-0.2407080593109131
0.30824233546295593,1.075136594772339,0.30824246046295595,-0.22276244163513187
0.31324233546295593,1.075136594772339,0.31324246046295595,-0.22575337791442873
0.31824233546295594,1.075136594772339,0.31824246046295596,-0.23372920799255373
0.3232423354629559,1.070155363082886,0.3232424604629559,-0.23173525047302249
0.3282423354629559,1.075136594772339,0.3282424604629559,-0.22575337791442873
0.3332423354629559,1.0771290874481203,0.3332424604629559,-0.2048168239593506
0.3382423354629559,1.0781253337860108,0.3382424604629559,-0.18886516380310062
0.3432423354629559,1.0691591167449952,0.3432424604629559,-0.19385005760192872
0.3482423354629559,1.0691591167449952,0.3482424604629559,-0.19484703636169437
0.3532423354629559,1.0771290874481203,0.35324246046295593,-0.18687120628356935
0.3582423354629559,1.080117826461792,0.35824246046295594,-0.1729135036468506
0.3632423354629559,1.0691591167449952,0.36324246046295594,-0.1569618434906006
0.3682423354629559,1.0691591167449952,0.36824246046295595,-0.14101018333435061
0.37324233546295593,1.070155363082886,0.37324246046295595,-0.15397090721130374
0.37824233546295594,1.0781253337860108,0.37824246046295595,-0.13901622581481934
0.3832423354629559,1.0761328411102296,0.3832424604629559,-0.13004341697692873
0.3882423354629559,1.0691591167449952,0.3882424604629559,-0.1370222682952881
0.3932423354629559,1.0631816387176514,0.3932424604629559,-0.12306456565856935
0.3982423354629559,1.0741403484344483,0.3982424604629559,-0.11508873558044436
0.4032423354629559,1.0711516094207765,0.4032424604629559,-0.10013405418395997
0.4082423354629559,1.070155363082886,0.4082424604629559,-0.0971431179046631
0.4132423354629559,1.0731441020965578,0.41324246046295593,-0.10711290550231935
0.4182423354629559,1.0761328411102296,0.41824246046295593,-0.11209779930114748
0.4232423354629559,1.0771290874481203,0.42324246046295594,-0.09814009666442872
0.4282423354629559,1.0681628704071047,0.42824246046295594,-0.10212801170349123
0.43324233546295593,1.0681628704071047,0.43324246046295595,-0.0931552028656006
0.43824233546295593,1.0711516094207765,0.43824246046295595,-0.09913707542419435
0.4432423354629559,1.072147855758667,0.4432424604629559,-0.0971431179046631
0.4482423354629559,1.070155363082886,0.4482424604629559,-0.0931552028656006
0.4532423354629559,1.0631816387176514,0.4532424604629559,-0.10412196922302247
0.4582423354629559,1.075136594772339,0.4582424604629559,-0.10212801170349123
0.4632423354629559,1.0711516094207765,0.4632424604629559,-0.1011310329437256
0.4682423354629559,1.0691591167449952,0.4682424604629559,-0.09514916038513185
0.4732423354629559,1.0691591167449952,0.4732424604629559,-0.09814009666442872
0.4782423354629559,1.075136594772339,0.47824246046295593,-0.08817030906677248
0.4832423354629559,1.070155363082886,0.48324246046295594,-0.09614613914489747
0.4882423354629559,1.075136594772339,0.48824246046295594,-0.09514916038513185
0.4932423354629559,1.0711516094207765,0.49324246046295595,-0.0891672878265381
0.49824233546295593,1.0711516094207765,0.49824246046295595,-0.08318541526794435
0.5032423354629559,1.0681628704071047,0.503242460462956,-0.08418239402770997
0.5082423354629559,1.070155363082886,0.508242460462956,-0.09116124534606934
0.513242335462956,1.0741403484344483,0.513242460462956,-0.0931552028656006
0.518242335462956,1.0731441020965578,0.518242460462956,-0.10412196922302247
0.523242335462956,1.0691591167449952,0.523242460462956,-0.08617635154724122
0.528242335462956,1.0731441020965578,0.528242460462956,-0.06823073387145998
0.533242335462956,1.0711516094207765,0.533242460462956,-0.06723375511169434
0.538242335462956,1.0651741313934326,0.538242460462956,-0.06623677635192872
0.5432423354629559,1.070155363082886,0.5432424604629559,-0.06623677635192872
0.5482423354629559,1.072147855758667,0.5482424604629559,-0.06324584007263184
0.5532423354629559,1.072147855758667,0.5532424604629559,-0.06823073387145998
0.5582423354629559,1.0661703777313234,0.5582424604629559,-0.07720354270935059
0.5632423354629559,1.0711516094207765,0.5632424604629559,-0.08418239402770997
0.5682423354629559,1.067166624069214,0.5682424604629559,-0.08817030906677248
0.5732423354629559,1.0711516094207765,0.5732424604629559,-0.08617635154724122
0.5782423354629559,1.0741403484344483,0.5782424604629559,-0.07820052146911623
0.5832423354629559,1.070155363082886,0.5832424604629559,-0.0692277126312256
0.5882423354629559,1.067166624069214,0.5882424604629559,-0.07421260643005372
0.5932423354629559,1.072147855758667,0.5932424604629559,-0.0692277126312256
0.5982423354629559,1.0731441020965578,0.5982424604629559,-0.06224886131286622
0.6032423354629559,1.0761328411102296,0.6032424604629559,-0.05227907371520997
0.6082423354629559,1.070155363082886,0.6082424604629559,-0.02735460472106934
0.6132423354629559,1.0771290874481203,0.6132424604629559,0.0015577793121337893
0.6182423354629559,1.0741403484344483,0.618242460462956,0.00953360939025879
0.6232423354629559,1.0731441020965578,0.623242460462956,0.008536630630493165
0.6282423354629559,1.0711516094207765,0.628242460462956,-0.000436178207397461
0.6332423354629559,1.0681628704071047,0.633242460462956,-0.004424093246459961
0.638242335462956,1.075136594772339,0.638242460462956,-0.011402944564819337
0.643242335462956,1.0711516094207765,0.643242460462956,-0.01738481712341309
0.648242335462956,1.0711516094207765,0.648242460462956,-0.011402944564819337
0.653242335462956,1.0631816387176514,0.653242460462956,-0.02536064720153809
0.658242335462956,1.0641778850555421,0.658242460462956,-0.046297201156616216
0.663242335462956,1.0731441020965578,0.663242460462956,-0.08119145774841309
0.668242335462956,1.0741403484344483,0.668242460462956,-0.05626698875427247
0.673242335462956,1.0711516094207765,0.673242460462956,-0.05128209495544434
0.678242335462956,1.070155363082886,0.678242460462956,-0.060254903793334966
0.683242335462956,1.0691591167449952,0.683242460462956,-0.06823073387145998
0.688242335462956,1.0681628704071047,0.688242460462956,-0.07720354270935059
0.693242335462956,1.0731441020965578,0.693242460462956,-0.07122167015075684
0.698242335462956,1.072147855758667,0.698242460462956,-0.1011310329437256
0.703242335462956,1.075136594772339,0.703242460462956,-0.09514916038513185
0.708242335462956,1.0711516094207765,0.708242460462956,-0.0891672878265381
0.713242335462956,1.0761328411102296,0.713242460462956,-0.08717333030700684
0.718242335462956,1.072147855758667,0.718242460462956,-0.09215822410583498
0.723242335462956,1.0731441020965578,0.723242460462956,-0.11110082054138185
0.728242335462956,1.0761328411102296,0.728242460462956,-0.12007362937927248
0.733242335462956,1.0731441020965578,0.733242460462956,-0.1170826930999756
0.738242335462956,1.0771290874481203,0.738242460462956,-0.03931834983825684
0.743242335462956,1.0741403484344483,0.7432424604629561,0.09527378273010255
0.748242335462956,1.072147855758667,0.7482424604629561,0.3156060886383057
0.7532423354629559,1.0711516094207765,0.753242460462956,0.5518900547027589
0.7582423354629559,1.070155363082886,0.758242460462956,0.7572676792144777
0.763242335462956,1.067166624069214,0.763242460462956,0.7662404880523682
0.768242335462956,1.0661703777313234,0.768242460462956,0.5339444370269776
0.773242335462956,1.0691591167449952,0.773242460462956,0.1810139560699463
0.778242335462956,1.067166624069214,0.778242460462956,-0.12605550193786622
0.783242335462956,1.0731441020965578,0.783242460462956,-0.3194693813323975
0.788242335462956,1.0771290874481203,0.788242460462956,-0.40321559715271
0.793242335462956,1.067166624069214,0.793242460462956,-0.39224883079528816
0.798242335462956,1.072147855758667,0.798242460462956,-0.3543636379241944
0.803242335462956,1.0611891460418703,0.803242460462956,-0.3035177211761475
0.808242335462956,1.0741403484344483,0.808242460462956,-0.25466576194763185
0.813242335462956,1.0741403484344483,0.813242460462956,-0.2247563991546631
0.818242335462956,1.0691591167449952,0.818242460462956,-0.18587422752380373
0.823242335462956,1.0661703777313234,0.823242460462956,-0.1649376735687256
0.828242335462956,1.0761328411102296,0.828242460462956,-0.14300414085388186
0.833242335462956,1.070155363082886,0.833242460462956,-0.13502831077575686
0.838242335462956,1.0731441020965578,0.838242460462956,-0.1170826930999756
0.843242335462956,1.0731441020965578,0.843242460462956,-0.11907665061950685
0.848242335462956,1.0681628704071047,0.848242460462956,-0.1130947780609131
0.853242335462956,1.0661703777313234,0.853242460462956,-0.1051189479827881
0.858242335462956,1.0661703777313234,0.858242460462956,-0.09913707542419435
0.863242335462956,1.075136594772339,0.863242460462956,-0.09415218162536622
0.868242335462956,1.0681628704071047,0.8682424604629561,-0.09016426658630372
0.873242335462956,1.0741403484344483,0.8732424604629561,-0.07720354270935059
0.8782423354629559,1.0711516094207765,0.878242460462956,-0.07221864891052247
0.8832423354629559,1.0761328411102296,0.883242460462956,-0.060254903793334966
0.888242335462956,1.0711516094207765,0.888242460462956,-0.061251882553100594
0.893242335462956,1.072147855758667,0.893242460462956,-0.048291158676147465
0.898242335462956,1.072147855758667,0.898242460462956,-0.03931834983825684
0.903242335462956,1.0691591167449952,0.903242460462956,-0.035330434799194343
0.908242335462956,1.0681628704071047,0.908242460462956,-0.012399923324584963
0.913242335462956,1.067166624069214,0.913242460462956,-0.002430135726928711
0.918242335462956,1.075136594772339,0.918242460462956,0.012524545669555666
0.923242335462956,1.072147855758667,0.923242460462956,0.03645203590393067
0.928242335462956,1.0651741313934326,0.928242460462956,0.06636139869689943
0.933242335462956,1.0681628704071047,0.933242460462956,0.08430701637268068
0.938242335462956,1.0681628704071047,0.938242460462956,0.11022846412658693
0.943242335462956,1.0681628704071047,0.943242460462956,0.14213178443908694
0.948242335462956,1.0731441020965578,0.948242460462956,0.1640653171539307
0.953242335462956,1.072147855758667,0.953242460462956,0.18699582862854006
0.958242335462956,1.0711516094207765,0.958242460462956,0.21889914894104007
0.963242335462956,1.072147855758667,0.963242460462956,0.2547903842926026
0.968242335462956,1.070155363082886,0.968242460462956,0.2827057895660401
0.973242335462956,1.0611891460418703,0.973242460462956,0.29068161964416506
0.978242335462956,1.0661703777313234,0.978242460462956,0.3056363010406494
0.983242335462956,1.0711516094207765,0.983242460462956,0.32557587623596196
0.988242335462956,1.075136594772339,0.988242460462956,0.333551706314087
0.993242335462956,1.067166624069214,0.9932424604629561,0.3156060886383057
0.998242335462956,1.0711516094207765,0.9982424604629561,0.2727360019683838
1.003242335462956,1.0661703777313234,1.003242460462956,0.22189008522033693
1.0082423354629562,1.075136594772339,1.008242460462956,0.16207135963439945
1.013242335462956,1.0761328411102296,1.013242460462956,0.09527378273010255
1.0182423354629562,1.0661703777313234,1.018242460462956,0.010530588150024415
1.023242335462956,1.0651741313934326,1.023242460462956,-0.04530022239685059
1.0282423354629562,1.0731441020965578,1.028242460462956,-0.10212801170349123
1.033242335462956,1.0631816387176514,1.033242460462956,-0.14798903465271
1.0382423354629562,1.0741403484344483,1.038242460462956,-0.187868185043335
1.043242335462956,1.0731441020965578,1.043242460462956,-0.22276244163513187
1.0482423354629562,1.0651741313934326,1.048242460462956,-0.24968086814880375
1.053242335462956,1.072147855758667,1.053242460462956,-0.25366878318786623
1.0582423354629562,1.070155363082886,1.0582424604629561,-0.27261137962341314
1.063242335462956,1.072147855758667,1.063242460462956,-0.27859325218200687
1.0682423354629562,1.0681628704071047,1.0682424604629561,-0.2875660610198975
1.073242335462956,1.0711516094207765,1.073242460462956,-0.27859325218200687
1.078242335462956,1.0761328411102296,1.078242460462956,-0.2696204433441162
1.0832423354629561,1.0741403484344483,1.083242460462956,-0.2686234645843506
1.088242335462956,1.0731441020965578,1.088242460462956,-0.26064763450622563
1.0932423354629561,1.0731441020965578,1.093242460462956,-0.2576566982269287
1.098242335462956,1.0771290874481203,1.098242460462956,-0.2626415920257569
1.1032423354629561,1.070155363082886,1.103242460462956,-0.2476869106292725
1.108242335462956,1.070155363082886,1.108242460462956,-0.2327322292327881
1.1132423354629561,1.0731441020965578,1.113242460462956,-0.21478661155700687
1.118242335462956,1.0711516094207765,1.118242460462956,-0.22176546287536625
1.1232423354629562,1.0661703777313234,1.123242460462956,-0.19484703636169437
1.128242335462956,1.0711516094207765,1.128242460462956,-0.18388027000427248
1.1332423354629562,1.0661703777313234,1.133242460462956,-0.16992256736755373
1.138242335462956,1.0741403484344483,1.138242460462956,-0.16992256736755373
1.1432423354629562,1.0741403484344483,1.143242460462956,-0.15895580101013185
1.148242335462956,1.067166624069214,1.148242460462956,-0.15397090721130374
1.1532423354629562,1.0711516094207765,1.153242460462956,-0.15795882225036623
1.158242335462956,1.0761328411102296,1.158242460462956,-0.1569618434906006
1.1632423354629562,1.067166624069214,1.163242460462956,-0.14998299217224123
1.168242335462956,1.0681628704071047,1.168242460462956,-0.15496788597106936
1.1732423354629562,1.0711516094207765,1.173242460462956,-0.16094975852966312
1.178242335462956,1.0691591167449952,1.178242460462956,-0.15097997093200685
1.1832423354629562,1.072147855758667,1.1832424604629561,-0.16992256736755373
1.188242335462956,1.0761328411102296,1.188242460462956,-0.15895580101013185
1.1932423354629562,1.075136594772339,1.1932424604629561,-0.1489860134124756
1.198242335462956,1.0711516094207765,1.198242460462956,-0.1449980983734131
1.203242335462956,1.0731441020965578,1.203242460462956,-0.14998299217224123
1.2082423354629561,1.0791215801239016,1.208242460462956,-0.14101018333435061
1.213242335462956,1.072147855758667,1.213242460462956,-0.1449980983734131
1.2182423354629561,1.0731441020965578,1.218242460462956,-0.15197694969177247
1.223242335462956,1.070155363082886,1.223242460462956,-0.14998299217224123
1.2282423354629561,1.067166624069214,1.228242460462956,-0.14798903465271
1.233242335462956,1.0711516094207765,1.233242460462956,-0.14998299217224123
1.2382423354629561,1.0691591167449952,1.238242460462956,-0.14101018333435061
1.243242335462956,1.075136594772339,1.243242460462956,-0.14001320457458497
1.2482423354629562,1.0741403484344483,1.248242460462956,-0.14001320457458497
1.253242335462956,1.0711516094207765,1.253242460462956,-0.12605550193786622
1.2582423354629562,1.070155363082886,1.258242460462956,-0.11010384178161622
1.263242335462956,1.075136594772339,1.263242460462956,-0.10611592674255373
1.2682423354629562,1.0661703777313234,1.268242460462956,-0.11010384178161622
1.273242335462956,1.0731441020965578,1.273242460462956,-0.11209779930114748
1.2782423354629562,1.070155363082886,1.278242460462956,-0.11209779930114748
1.283242335462956,1.072147855758667,1.283242460462956,-0.1290464382171631
1.2882423354629562,1.070155363082886,1.288242460462956,-0.12705248069763186
1.293242335462956,1.072147855758667,1.293242460462956,-0.11907665061950685
1.2982423354629562,1.0681628704071047,1.298242460462956,-0.1130947780609131
1.303242335462956,1.0711516094207765,1.303242460462956,-0.11508873558044436
1.3082423354629562,1.0681628704071047,1.3082424604629561,-0.10412196922302247
1.313242335462956,1.0681628704071047,1.313242460462956,-0.10412196922302247
1.3182423354629562,1.075136594772339,1.3182424604629561,-0.09913707542419435
1.323242335462956,1.0791215801239016,1.323242460462956,-0.11110082054138185
1.328242335462956,1.072147855758667,1.328242460462956,-0.1210706081390381
1.3332423354629561,1.0781253337860108,1.333242460462956,-0.11907665061950685
1.338242335462956,1.0691591167449952,1.338242460462956,-0.1170826930999756
1.3432423354629561,1.0731441020965578,1.343242460462956,-0.11010384178161622
1.348242335462956,1.0731441020965578,1.348242460462956,-0.10810988426208497
1.3532423354629561,1.0741403484344483,1.353242460462956,-0.1091068630218506
1.358242335462956,1.075136594772339,1.358242460462956,-0.1091068630218506
1.3632423354629561,1.070155363082886,1.363242460462956,-0.10212801170349123
1.368242335462956,1.0731441020965578,1.368242460462956,-0.11209779930114748
1.3732423354629562,1.067166624069214,1.373242460462956,-0.10611592674255373
1.378242335462956,1.0711516094207765,1.378242460462956,-0.09215822410583498
1.3832423354629562,1.075136594772339,1.383242460462956,-0.09016426658630372
1.388242335462956,1.0711516094207765,1.388242460462956,-0.08218843650817872
1.3932423354629562,1.0711516094207765,1.393242460462956,-0.09116124534606934
1.398242335462956,1.0711516094207765,1.398242460462956,-0.08617635154724122
1.4032423354629562,1.0711516094207765,1.403242460462956,-0.08119145774841309
1.408242335462956,1.0691591167449952,1.408242460462956,-0.08418239402770997
1.4132423354629562,1.075136594772339,1.413242460462956,-0.08418239402770997
1.418242335462956,1.0711516094207765,1.418242460462956,-0.10013405418395997
1.4232423354629562,1.0781253337860108,1.423242460462956,-0.0931552028656006
1.428242335462956,1.0741403484344483,1.428242460462956,-0.06723375511169434
1.4332423354629562,1.0711516094207765,1.4332424604629561,-0.06324584007263184
1.438242335462956,1.0681628704071047,1.438242460462956,-0.057263967514038096
1.4432423354629562,1.067166624069214,1.4432424604629561,-0.0652397975921631
1.448242335462956,1.0731441020965578,1.448242460462956,-0.06424281883239746
1.453242335462956,1.072147855758667,1.453242460462956,-0.07022469139099122
1.4582423354629561,1.0771290874481203,1.458242460462956,-0.07022469139099122
1.463242335462956,1.072147855758667,1.463242460462956,-0.057263967514038096
1.4682423354629561,1.072147855758667,1.468242460462956,-0.05626698875427247
1.473242335462956,1.0711516094207765,1.473242460462956,-0.05227907371520997
1.4782423354629561,1.0711516094207765,1.478242460462956,-0.02536064720153809
1.483242335462956,1.0761328411102296,1.483242460462956,-0.005421072006225587
1.4882423354629561,1.0691591167449952,1.488242460462956,0.00753965187072754
1.493242335462956,1.0641778850555421,1.493242460462956,0.008536630630493165
1.4982423354629562,1.0681628704071047,1.498242460462956,-0.004424093246459961
1.503242335462956,1.0761328411102296,1.503242460462956,-0.026357625961303713
1.5082423354629562,1.067166624069214,1.508242460462956,-0.04230928611755372
1.513242335462956,1.0681628704071047,1.513242460462956,-0.03931834983825684
1.5182423354629562,1.070155363082886,1.518242460462956,-0.057263967514038096
1.523242335462956,1.070155363082886,1.523242460462956,-0.0732156276702881
1.5282423354629562,1.067166624069214,1.528242460462956,-0.09116124534606934
1.533242335462956,1.070155363082886,1.533242460462956,-0.09016426658630372
1.5382423354629562,1.070155363082886,1.538242460462956,-0.09514916038513185
1.543242335462956,1.0761328411102296,1.543242460462956,-0.09016426658630372
1.5482423354629562,1.072147855758667,1.548242460462956,-0.10711290550231935
1.553242335462956,1.0681628704071047,1.553242460462956,-0.1130947780609131
1.5582423354629562,1.0731441020965578,1.5582424604629561,-0.11608571434020998
1.563242335462956,1.0711516094207765,1.563242460462956,-0.12007362937927248
1.5682423354629562,1.0681628704071047,1.5682424604629561,-0.12007362937927248
1.573242335462956,1.0731441020965578,1.573242460462956,-0.11409175682067872
1.5782423354629562,1.0761328411102296,1.5782424604629561,-0.10611592674255373
1.5832423354629561,1.0691591167449952,1.583242460462956,-0.11508873558044436
1.588242335462956,1.0691591167449952,1.588242460462956,-0.10611592674255373
1.5932423354629561,1.0711516094207765,1.593242460462956,-0.11110082054138185
1.598242335462956,1.0661703777313234,1.598242460462956,-0.11110082054138185
1.6032423354629561,1.0711516094207765,1.603242460462956,-0.09016426658630372
1.608242335462956,1.070155363082886,1.608242460462956,-0.01738481712341309
1.6132423354629561,1.067166624069214,1.613242460462956,0.14911063575744632
1.618242335462956,1.0681628704071047,1.618242460462956,0.3774187717437745
1.6232423354629562,1.072147855758667,1.623242460462956,0.6057269077301026
1.628242335462956,1.0731441020965578,1.628242460462956,0.7772072544097901
1.6332423354629562,1.0691591167449952,1.633242460462956,0.7682344455718995
1.638242335462956,1.072147855758667,1.638242460462956,0.5030380954742433
1.6432423354629562,1.070155363082886,1.643242460462956,0.1371468906402588
1.648242335462956,1.0691591167449952,1.648242460462956,-0.1729135036468506
1.6532423354629562,1.070155363082886,1.653242460462956,-0.347384786605835
1.658242335462956,1.075136594772339,1.658242460462956,-0.4151793422698975
1.6632423354629562,1.072147855758667,1.663242460462956,-0.40221861839294437
1.668242335462956,1.0711516094207765,1.668242460462956,-0.3483817653656006
1.6732423354629562,1.0731441020965578,1.673242460462956,-0.2925509548187256
1.678242335462956,1.0771290874481203,1.678242460462956,-0.24270201683044437
1.6832423354629562,1.0681628704071047,1.6832424604629561,-0.1968409938812256
1.688242335462956,1.0731441020965578,1.688242460462956,-0.1649376735687256
1.6932423354629562,1.0731441020965578,1.6932424604629561,-0.1489860134124756
1.698242335462956,1.072147855758667,1.698242460462956,-0.13104039573669435
1.7032423354629562,1.070155363082886,1.7032424604629561,-0.11608571434020998
1.7082423354629561,1.0681628704071047,1.708242460462956,-0.1011310329437256
1.713242335462956,1.0681628704071047,1.713242460462956,-0.09814009666442872
1.7182423354629561,1.072147855758667,1.718242460462956,-0.09116124534606934
1.723242335462956,1.0741403484344483,1.723242460462956,-0.08019447898864747
1.7282423354629561,1.0731441020965578,1.728242460462956,-0.0732156276702881
1.733242335462956,1.0731441020965578,1.733242460462956,-0.05527000999450684
1.7382423354629561,1.067166624069214,1.738242460462956,-0.047294179916381844
1.743242335462956,1.0761328411102296,1.743242460462956,-0.04530022239685059
1.7482423354629562,1.072147855758667,1.748242460462956,-0.03832137107849121
1.753242335462956,1.0661703777313234,1.753242460462956,-0.03333647727966309
1.7582423354629562,1.0731441020965578,1.758242460462956,-0.010405965805053713
1.763242335462956,1.0681628704071047,1.763242460462956,0.0015577793121337893
1.7682423354629562,1.0741403484344483,1.768242460462956,0.018506418228149416
1.773242335462956,1.075136594772339,1.773242460462956,0.030470163345336917
1.7782423354629562,1.0691591167449952,1.778242460462956,0.04243390846252442
1.783242335462956,1.067166624069214,1.783242460462956,0.06337046241760255
1.7882423354629562,1.0731441020965578,1.788242460462956,0.07433722877502442
1.793242335462956,1.070155363082886,1.793242460462956,0.09128586769104005
1.7982423354629562,1.0691591167449952,1.798242460462956,0.11122544288635255
1.803242335462956,1.0711516094207765,1.803242460462956,0.1411348056793213
1.8082423354629562,1.072147855758667,1.8082424604629561,0.16905021095275882
1.813242335462956,1.075136594772339,1.813242460462956,0.19497165870666505
1.8182423354629562,1.0661703777313234,1.8182424604629561,0.22189008522033693
1.823242335462956,1.0731441020965578,1.823242460462956,0.2557873630523682
1.8282423354629562,1.0731441020965578,1.8282424604629561,0.2797148532867432
1.8332423354629561,1.070155363082886,1.833242460462956,0.30862723731994635
1.838242335462956,1.067166624069214,1.838242460462956,0.3265728549957276
1.8432423354629561,1.0691591167449952,1.843242460462956,0.33753962135314947
1.848242335462956,1.072147855758667,1.848242460462956,0.3435214939117432
1.8532423354629561,1.0691591167449952,1.853242460462956,0.3624640903472901
1.858242335462956,1.0681628704071047,1.858242460462956,0.34850638771057135
1.8632423354629561,1.070155363082886,1.863242460462956,0.3355456638336182
1.868242335462956,1.0691591167449952,1.868242460462956,0.29666349220275884
1.8732423354629562,1.0711516094207765,1.873242460462956,0.2398357028961182
1.878242335462956,1.070155363082886,1.878242460462956,0.18300791358947757
1.8832423354629562,1.067166624069214,1.883242460462956,0.10823450660705568
1.888242335462956,1.075136594772339,1.888242460462956,0.04442786598205567
1.8932423354629562,1.070155363082886,1.893242460462956,-0.007415029525756837
1.898242335462956,1.070155363082886,1.898242460462956,-0.06723375511169434
1.9032423354629562,1.070155363082886,1.903242460462956,-0.11010384178161622
1.908242335462956,1.0681628704071047,1.908242460462956,-0.16294371604919436
1.9132423354629562,1.075136594772339,1.913242460462956,-0.19883495140075685
1.918242335462956,1.0741403484344483,1.918242460462956,-0.22575337791442873
1.9232423354629562,1.0741403484344483,1.923242460462956,-0.23971108055114748
1.928242335462956,1.072147855758667,1.928242460462956,-0.25366878318786623
1.9332423354629562,1.0681628704071047,1.9332424604629561,-0.25366878318786623
1.938242335462956,1.0741403484344483,1.938242460462956,-0.2636385707855225
1.9432423354629562,1.0731441020965578,1.9432424604629561,-0.25965065574646
1.948242335462956,1.070155363082886,1.948242460462956,-0.24469597434997561
1.9532423354629562,1.0711516094207765,1.9532424604629561,-0.26064763450622563
1.9582423354629561,1.0691591167449952,1.958242460462956,-0.2476869106292725
1.9632423354629562,1.0711516094207765,1.9632424604629561,-0.25067784690856937
1.9682423354629561,1.0691591167449952,1.968242460462956,-0.2327322292327881
1.973242335462956,1.072147855758667,1.973242460462956,-0.2237594203948975
1.9782423354629561,1.0731441020965578,1.978242460462956,-0.2237594203948975
1.983242335462956,1.0661703777313234,1.983242460462956,-0.23173525047302249
1.9882423354629561,1.070155363082886,1.988242460462956,-0.2127926540374756
1.993242335462956,1.0781253337860108,1.993242460462956,-0.20082890892028812
1.9982423354629562,1.0711516094207765,1.998242460462956,-0.20182588768005374
2.003242335462956,1.0741403484344483,2.003242460462956,-0.19584401512146
2.0082423354629557,1.067166624069214,2.008242460462956,-0.1848772487640381
2.013242335462956,1.0731441020965578,2.013242460462956,-0.1729135036468506
2.018242335462956,1.0711516094207765,2.018242460462956,-0.16394069480895998
2.023242335462956,1.0661703777313234,2.023242460462956,-0.15197694969177247
2.0282423354629557,1.067166624069214,2.028242460462956,-0.14798903465271
2.033242335462956,1.0731441020965578,2.033242460462956,-0.14200716209411623
2.038242335462956,1.0731441020965578,2.038242460462956,-0.1449980983734131
2.043242335462956,1.0731441020965578,2.043242460462956,-0.14599507713317872
2.0482423354629558,1.0741403484344483,2.048242460462956,-0.15995277976989747
2.053242335462956,1.070155363082886,2.053242460462956,-0.15397090721130374
2.058242335462956,1.070155363082886,2.058242460462956,-0.1370222682952881
2.063242335462956,1.0681628704071047,2.063242460462956,-0.1290464382171631
2.0682423354629558,1.067166624069214,2.068242460462956,-0.1130947780609131
2.073242335462956,1.0711516094207765,2.0732424604629562,-0.11907665061950685
2.078242335462956,1.072147855758667,2.078242460462956,-0.1170826930999756
2.083242335462956,1.0691591167449952,2.083242460462956,-0.11010384178161622
2.088242335462956,1.0711516094207765,2.088242460462956,-0.11508873558044436
2.0932423354629557,1.0711516094207765,2.093242460462956,-0.12007362937927248
2.098242335462956,1.0711516094207765,2.098242460462956,-0.12206758689880373
2.103242335462956,1.0681628704071047,2.103242460462956,-0.11409175682067872
2.108242335462956,1.067166624069214,2.108242460462956,-0.1091068630218506
2.1132423354629557,1.0651741313934326,2.113242460462956,-0.11209779930114748
2.118242335462956,1.070155363082886,2.118242460462956,-0.11409175682067872
2.123242335462956,1.0711516094207765,2.123242460462956,-0.11409175682067872
2.128242335462956,1.067166624069214,2.128242460462956,-0.1170826930999756
2.1332423354629557,1.0681628704071047,2.133242460462956,-0.12007362937927248
2.138242335462956,1.070155363082886,2.138242460462956,-0.13004341697692873
2.143242335462956,1.0741403484344483,2.143242460462956,-0.12804945945739749
2.148242335462956,1.067166624069214,2.148242460462956,-0.11807967185974122
2.1532423354629557,1.070155363082886,2.153242460462956,-0.1130947780609131
2.158242335462956,1.0691591167449952,2.158242460462956,-0.09016426658630372
2.163242335462956,1.0711516094207765,2.163242460462956,-0.10013405418395997
2.168242335462956,1.0681628704071047,2.168242460462956,-0.09415218162536622
2.1732423354629558,1.0691591167449952,2.173242460462956,-0.09913707542419435
2.178242335462956,1.0661703777313234,2.178242460462956,-0.09614613914489747
2.183242335462956,1.070155363082886,2.183242460462956,-0.1011310329437256
2.188242335462956,1.067166624069214,2.188242460462956,-0.10611592674255373
2.1932423354629558,1.0711516094207765,2.193242460462956,-0.11110082054138185
2.198242335462956,1.0711516094207765,2.1982424604629562,-0.09215822410583498
2.203242335462956,1.0691591167449952,2.203242460462956,-0.09913707542419435
2.208242335462956,1.0641778850555421,2.208242460462956,-0.09913707542419435
2.213242335462956,1.0731441020965578,2.213242460462956,-0.09215822410583498
2.218242335462956,1.075136594772339,2.2182424604629563,-0.09215822410583498
2.223242335462956,1.0711516094207765,2.223242460462956,-0.09814009666442872
2.228242335462956,1.0731441020965578,2.228242460462956,-0.0931552028656006
2.233242335462956,1.0691591167449952,2.233242460462956,-0.08318541526794435
2.2382423354629557,1.070155363082886,2.238242460462956,-0.0931552028656006
2.243242335462956,1.0651741313934326,2.243242460462956,-0.10212801170349123
2.248242335462956,1.0741403484344483,2.248242460462956,-0.10711290550231935
2.253242335462956,1.067166624069214,2.253242460462956,-0.10711290550231935
2.2582423354629557,1.070155363082886,2.258242460462956,-0.07620656394958497
2.263242335462956,1.0731441020965578,2.263242460462956,-0.07221864891052247
2.268242335462956,1.070155363082886,2.268242460462956,-0.06723375511169434
2.273242335462956,1.0661703777313234,2.273242460462956,-0.06324584007263184
2.2782423354629557,1.0731441020965578,2.278242460462956,-0.0652397975921631
2.283242335462956,1.0651741313934326,2.283242460462956,-0.07122167015075684
2.288242335462956,1.080117826461792,2.288242460462956,-0.0732156276702881
2.293242335462956,1.0651741313934326,2.293242460462956,-0.08318541526794435
2.2982423354629558,1.0631816387176514,2.298242460462956,-0.07421260643005372
2.303242335462956,1.067166624069214,2.303242460462956,-0.06823073387145998
2.308242335462956,1.0681628704071047,2.308242460462956,-0.06324584007263184
2.313242335462956,1.067166624069214,2.313242460462956,-0.06623677635192872
2.3182423354629558,1.0711516094207765,2.318242460462956,-0.0652397975921631
2.323242335462956,1.0661703777313234,2.3232424604629562,-0.04928813743591309
2.328242335462956,1.072147855758667,2.328242460462956,-0.04230928611755372
2.333242335462956,1.0731441020965578,2.333242460462956,-0.021372732162475587
2.338242335462956,1.072147855758667,2.338242460462956,0.0035517368316650396
2.343242335462956,1.0681628704071047,2.3432424604629563,0.0025547580718994142
2.348242335462956,1.0731441020965578,2.348242460462956,0.0005608005523681641
2.353242335462956,1.0711516094207765,2.353242460462956,-0.006418050765991212
2.358242335462956,1.0761328411102296,2.358242460462956,-0.01738481712341309
2.3632423354629557,1.0711516094207765,2.363242460462956,-0.03333647727966309
2.368242335462956,1.070155363082886,2.368242460462956,-0.04430324363708497
2.373242335462956,1.0771290874481203,2.373242460462956,-0.046297201156616216
2.378242335462956,1.070155363082886,2.378242460462956,-0.048291158676147465
2.3832423354629557,1.075136594772339,2.383242460462956,-0.057263967514038096
2.388242335462956,1.0661703777313234,2.388242460462956,-0.06623677635192872
2.393242335462956,1.070155363082886,2.393242460462956,-0.08218843650817872
2.398242335462956,1.075136594772339,2.398242460462956,-0.10212801170349123
2.4032423354629557,1.070155363082886,2.403242460462956,-0.11209779930114748
2.408242335462956,1.070155363082886,2.408242460462956,-0.1210706081390381
2.413242335462956,1.0711516094207765,2.413242460462956,-0.12306456565856935
2.418242335462956,1.072147855758667,2.418242460462956,-0.11907665061950685
2.4232423354629558,1.0731441020965578,2.423242460462956,-0.09913707542419435
2.428242335462956,1.0711516094207765,2.428242460462956,-0.08717333030700684
2.433242335462956,1.070155363082886,2.433242460462956,-0.0931552028656006
2.438242335462956,1.0661703777313234,2.438242460462956,-0.09913707542419435
2.4432423354629558,1.072147855758667,2.443242460462956,-0.1051189479827881
2.448242335462956,1.070155363082886,2.4482424604629562,-0.1130947780609131
2.453242335462956,1.070155363082886,2.453242460462956,-0.11907665061950685
2.458242335462956,1.070155363082886,2.458242460462956,-0.07919750022888185
2.463242335462956,1.070155363082886,2.463242460462956,0.03445807838439942
2.468242335462956,1.0711516094207765,2.4682424604629563,0.23285685157775882
2.473242335462956,1.0641778850555421,2.473242460462956,0.4801075839996338
2.478242335462956,1.0731441020965578,2.478242460462956,0.7064217624664307
2.483242335462956,1.0681628704071047,2.483242460462956,0.8390199375152589
2.4882423354629557,1.067166624069214,2.488242460462956,0.7114066562652589
2.493242335462956,1.070155363082886,2.493242460462956,0.3664520053863526
2.498242335462956,1.070155363082886,2.498242460462956,0.0025547580718994142
2.503242335462956,1.070155363082886,2.503242460462956,-0.23971108055114748
2.5082423354629557,1.075136594772339,2.508242460462956,-0.37330623435974125
2.513242335462956,1.067166624069214,2.513242460462956,-0.4042125759124756
2.518242335462956,1.0731441020965578,2.518242460462956,-0.3593485317230225
2.523242335462956,1.0691591167449952,2.523242460462956,-0.2955418910980225
2.5282423354629557,1.072147855758667,2.528242460462956,-0.23871410179138186
2.533242335462956,1.0681628704071047,2.533242460462956,-0.187868185043335
2.538242335462956,1.067166624069214,2.538242460462956,-0.1529739284515381
2.543242335462956,1.0681628704071047,2.543242460462956,-0.11508873558044436
2.5482423354629558,1.0691591167449952,2.548242460462956,-0.1011310329437256
2.553242335462956,1.0681628704071047,2.553242460462956,-0.0971431179046631
2.558242335462956,1.0731441020965578,2.558242460462956,-0.07122167015075684
2.5632423354629554,1.0691591167449952,2.5632424604629556,-0.06324584007263184
2.5682423354629558,1.072147855758667,2.568242460462956,-0.050285116195678714
2.5732423354629557,1.072147855758667,2.573242460462956,-0.04330626487731934
2.5782423354629556,1.0691591167449952,2.5782424604629557,-0.05227907371520997
2.5832423354629555,1.0741403484344483,2.5832424604629556,-0.047294179916381844
2.588242335462956,1.0661703777313234,2.588242460462956,-0.02336668968200684
2.5932423354629557,1.072147855758667,2.593242460462956,-0.019378774642944338
2.5982423354629556,1.070155363082886,2.5982424604629557,-0.009408987045288086
2.6032423354629555,1.0651741313934326,2.6032424604629556,0.005545694351196289
2.608242335462956,1.0691591167449952,2.608242460462956,0.010530588150024415
2.6132423354629557,1.067166624069214,2.613242460462956,0.018506418228149416
2.6182423354629556,1.0661703777313234,2.6182424604629557,0.023491312026977542
2.6232423354629555,1.072147855758667,2.6232424604629556,0.04841578102111817
2.628242335462956,1.075136594772339,2.628242460462956,0.06935233497619629
2.6332423354629557,1.0711516094207765,2.633242460462956,0.0853039951324463
2.6382423354629556,1.059196653366089,2.6382424604629557,0.09826471900939943
2.6432423354629555,1.0731441020965578,2.6432424604629556,0.10823450660705568
2.648242335462956,1.0681628704071047,2.648242460462956,0.11820429420471193
2.6532423354629557,1.0621853923797608,2.653242460462956,0.1411348056793213
2.6582423354629556,1.0711516094207765,2.6582424604629558,0.17702604103088382
2.6632423354629555,1.0681628704071047,2.6632424604629557,0.21092331886291507
2.6682423354629554,1.0731441020965578,2.6682424604629555,0.23385383033752444
2.6732423354629558,1.0691591167449952,2.673242460462956,0.26276621437072756
2.6782423354629556,1.070155363082886,2.6782424604629558,0.2986574497222901
2.6832423354629555,1.072147855758667,2.6832424604629557,0.3225849399566651
2.6882423354629554,1.0681628704071047,2.6882424604629556,0.34850638771057135
2.6932423354629558,1.0771290874481203,2.693242460462956,0.36844596290588383
2.6982423354629557,1.0691591167449952,2.698242460462956,0.3774187717437745
2.7032423354629556,1.0711516094207765,2.7032424604629557,0.37343085670471193
2.7082423354629555,1.0711516094207765,2.7082424604629556,0.3843976230621338
2.713242335462956,1.0691591167449952,2.713242460462956,0.3674489841461182
2.7182423354629557,1.0711516094207765,2.718242460462956,0.349503366470337
2.7232423354629556,1.0691591167449952,2.7232424604629557,0.2946695346832276
2.7282423354629555,1.072147855758667,2.7282424604629556,0.23784174537658695
2.733242335462956,1.070155363082886,2.733242460462956,0.17403510475158693
2.7382423354629557,1.0681628704071047,2.738242460462956,0.10823450660705568
2.7432423354629556,1.067166624069214,2.7432424604629557,0.05240369606018067
2.7482423354629555,1.0711516094207765,2.7482424604629556,-0.008412008285522462
2.753242335462956,1.0691591167449952,2.753242460462956,-0.06823073387145998
2.7582423354629557,1.0711516094207765,2.758242460462956,-0.11907665061950685
2.7632423354629556,1.0731441020965578,2.7632424604629557,-0.1569618434906006
2.7682423354629555,1.072147855758667,2.7682424604629556,-0.19883495140075685
2.773242335462956,1.0691591167449952,2.773242460462956,-0.22675035667419435
2.7782423354629557,1.0711516094207765,2.778242460462956,-0.24469597434997561
2.7832423354629556,1.0771290874481203,2.7832424604629558,-0.25366878318786623
2.7882423354629555,1.0661703777313234,2.7882424604629557,-0.2586536769866944
2.7932423354629554,1.067166624069214,2.7932424604629555,-0.2586536769866944
2.7982423354629558,1.070155363082886,2.798242460462956,-0.2476869106292725
2.8032423354629556,1.072147855758667,2.8032424604629558,-0.24170503807067875
2.8082423354629555,1.0661703777313234,2.8082424604629557,-0.23173525047302249
2.8132423354629554,1.075136594772339,2.8132424604629556,-0.22276244163513187
2.8182423354629558,1.070155363082886,2.818242460462956,-0.22276244163513187
2.8232423354629557,1.0691591167449952,2.823242460462956,-0.21877452659606936
2.8282423354629556,1.0731441020965578,2.8282424604629557,-0.21777754783630374
2.8332423354629555,1.0731441020965578,2.8332424604629556,-0.20681078147888185
2.838242335462956,1.070155363082886,2.838242460462956,-0.18587422752380373
2.8432423354629557,1.0681628704071047,2.843242460462956,-0.17789839744567873
2.8482423354629556,1.0651741313934326,2.8482424604629557,-0.15995277976989747
2.8532423354629555,1.0651741313934326,2.8532424604629556,-0.16094975852966312
2.858242335462956,1.0641778850555421,2.858242460462956,-0.1529739284515381
2.8632423354629557,1.0711516094207765,2.863242460462956,-0.14998299217224123
2.8682423354629556,1.0711516094207765,2.8682424604629557,-0.13801924705505372
2.8732423354629555,1.0761328411102296,2.8732424604629556,-0.12804945945739749
2.878242335462956,1.0691591167449952,2.878242460462956,-0.11907665061950685
2.8832423354629557,1.0681628704071047,2.883242460462956,-0.10810988426208497
2.8882423354629556,1.067166624069214,2.8882424604629557,-0.11010384178161622
2.8932423354629555,1.0761328411102296,2.8932424604629556,-0.10013405418395997
2.898242335462956,1.0681628704071047,2.898242460462956,-0.1011310329437256
2.9032423354629557,1.0681628704071047,2.903242460462956,-0.09814009666442872
2.9082423354629556,1.072147855758667,2.9082424604629558,-0.0931552028656006
2.9132423354629555,1.0681628704071047,2.9132424604629557,-0.09514916038513185
2.9182423354629554,1.072147855758667,2.9182424604629555,-0.0971431179046631
2.9232423354629558,1.075136594772339,2.923242460462956,-0.08817030906677248
2.9282423354629556,1.0681628704071047,2.9282424604629558,-0.08617635154724122
2.9332423354629555,1.0661703777313234,2.9332424604629557,-0.07820052146911623
2.9382423354629554,1.0611891460418703,2.9382424604629556,-0.08617635154724122
2.9432423354629558,1.0681628704071047,2.943242460462956,-0.07022469139099122
2.9482423354629557,1.0641778850555421,2.948242460462956,-0.07820052146911623
2.9532423354629556,1.0651741313934326,2.9532424604629557,-0.0851793727874756
2.9582423354629555,1.070155363082886,2.9582424604629556,-0.08019447898864747
2.963242335462956,1.0681628704071047,2.963242460462956,-0.07520958518981935
2.9682423354629557,1.0661703777313234,2.968242460462956,-0.07022469139099122
2.9732423354629556,1.067166624069214,2.9732424604629557,-0.07221864891052247
2.9782423354629555,1.0731441020965578,2.9782424604629556,-0.07720354270935059
2.983242335462956,1.070155363082886,2.983242460462956,-0.0692277126312256
2.9882423354629557,1.072147855758667,2.988242460462956,-0.06324584007263184
2.9932423354629556,1.0691591167449952,2.9932424604629557,-0.057263967514038096
2.9982423354629555,1.0681628704071047,2.9982424604629556,-0.061251882553100594
3.003242335462956,1.072147855758667,3.003242460462956,-0.05826094627380372
3.0082423354629557,1.070155363082886,3.008242460462956,-0.0692277126312256
3.0132423354629556,1.072147855758667,3.0132424604629557,-0.05427303123474122
3.0182423354629555,1.070155363082886,3.0182424604629556,-0.05527000999450684
3.023242335462956,1.0791215801239016,3.023242460462956,-0.059257925033569345
3.0282423354629557,1.0681628704071047,3.028242460462956,-0.061251882553100594
3.0332423354629556,1.070155363082886,3.0332424604629558,-0.0652397975921631
3.0382423354629555,1.0651741313934326,3.0382424604629557,-0.06324584007263184
3.043242335462956,1.067166624069214,3.043242460462956,-0.05527000999450684
3.0482423354629558,1.0621853923797608,3.048242460462956,-0.047294179916381844
3.0532423354629556,1.070155363082886,3.0532424604629558,-0.05626698875427247
3.0582423354629555,1.070155363082886,3.0582424604629557,-0.05427303123474122
3.0632423354629554,1.072147855758667,3.0632424604629556,-0.05327605247497559
3.0682423354629558,1.0691591167449952,3.068242460462956,-0.057263967514038096
3.0732423354629557,1.0572041606903078,3.073242460462956,-0.04530022239685059
3.0782423354629556,1.0741403484344483,3.0782424604629557,-0.04230928611755372
3.0832423354629555,1.0661703777313234,3.0832424604629556,-0.05227907371520997
3.088242335462956,1.072147855758667,3.088242460462956,-0.057263967514038096
3.0932423354629557,1.067166624069214,3.093242460462956,-0.05427303123474122
3.0982423354629556,1.0661703777313234,3.0982424604629557,-0.047294179916381844
3.1032423354629555,1.0711516094207765,3.1032424604629556,-0.046297201156616216
3.108242335462956,1.0691591167449952,3.108242460462956,-0.024363668441772464
3.1132423354629557,1.0691591167449952,3.113242460462956,-0.011402944564819337
3.1182423354629556,1.0691591167449952,3.1182424604629557,-0.008412008285522462
3.1232423354629555,1.072147855758667,3.1232424604629556,-0.009408987045288086
3.128242335462956,1.0691591167449952,3.128242460462956,0.016512460708618167
3.1332423354629557,1.075136594772339,3.133242460462956,0.022494333267211918
3.1382423354629556,1.0691591167449952,3.1382424604629557,0.01352152442932129
3.1432423354629555,1.070155363082886,3.1432424604629556,0.004548715591430665
3.148242335462956,1.0771290874481203,3.148242460462956,0.0005608005523681641
3.1532423354629557,1.0651741313934326,3.153242460462956,-0.012399923324584963
3.1582423354629556,1.0631816387176514,3.1582424604629558,-0.012399923324584963
3.1632423354629555,1.0641778850555421,3.1632424604629557,-0.02336668968200684
3.168242335462956,1.075136594772339,3.168242460462956,-0.03931834983825684
3.1732423354629558,1.0761328411102296,3.173242460462956,-0.06224886131286622
3.1782423354629556,1.0731441020965578,3.1782424604629558,-0.08817030906677248
3.1832423354629555,1.0641778850555421,3.1832424604629557,-0.08617635154724122
3.1882423354629554,1.0631816387176514,3.1882424604629556,-0.0931552028656006
3.1932423354629558,1.070155363082886,3.193242460462956,-0.09913707542419435
3.1982423354629557,1.0691591167449952,3.198242460462956,-0.09116124534606934
3.2032423354629556,1.070155363082886,3.2032424604629557,-0.09614613914489747
3.2082423354629555,1.0731441020965578,3.2082424604629556,-0.09016426658630372
3.213242335462956,1.0691591167449952,3.213242460462956,-0.09116124534606934
3.2182423354629557,1.0691591167449952,3.218242460462956,-0.09514916038513185
3.2232423354629556,1.067166624069214,3.2232424604629557,-0.08817030906677248
3.2282423354629555,1.067166624069214,3.2282424604629556,-0.09614613914489747
3.233242335462956,1.067166624069214,3.233242460462956,-0.09215822410583498
3.2382423354629557,1.0651741313934326,3.238242460462956,-0.09514916038513185
3.2432423354629556,1.0651741313934326,3.2432424604629557,-0.10711290550231935
3.2482423354629555,1.0641778850555421,3.2482424604629556,-0.060254903793334966
3.253242335462956,1.0711516094207765,3.253242460462956,0.037449014663696295
3.2582423354629557,1.0631816387176514,3.258242460462956,0.23385383033752444
3.2632423354629556,1.0641778850555421,3.2632424604629557,0.4781136264801026
3.2682423354629555,1.0711516094207765,3.2682424604629556,0.692464059829712
3.273242335462956,1.0711516094207765,3.273242460462956,0.7921619358062745
3.2782423354629557,1.072147855758667,3.278242460462956,0.6346392917633057
3.2832423354629556,1.0691591167449952,3.2832424604629558,0.2886876621246338
3.2882423354629555,1.0711516094207765,3.2882424604629557,-0.05227907371520997
3.293242335462956,1.0741403484344483,3.293242460462956,-0.27859325218200687
3.2982423354629558,1.072147855758667,3.298242460462956,-0.395239767074585
3.3032423354629556,1.0691591167449952,3.3032424604629558,-0.42814006614685063
3.3082423354629555,1.0691591167449952,3.3082424604629557,-0.38427300071716314
3.3132423354629554,1.075136594772339,3.3132424604629556,-0.3204663600921631
3.3182423354629558,1.070155363082886,3.318242460462956,-0.2476869106292725
3.3232423354629557,1.072147855758667,3.323242460462956,-0.19584401512146
3.3282423354629556,1.0711516094207765,3.3282424604629557,-0.16094975852966312
3.3332423354629555,1.0611891460418703,3.3332424604629556,-0.12406154441833497
3.338242335462956,1.072147855758667,3.338242460462956,-0.10412196922302247
3.3432423354629557,1.072147855758667,3.343242460462956,-0.09514916038513185
3.3482423354629556,1.072147855758667,3.3482424604629557,-0.07520958518981935
3.3532423354629555,1.070155363082886,3.3532424604629556,-0.07022469139099122
3.358242335462956,1.0681628704071047,3.358242460462956,-0.05626698875427247
3.3632423354629557,1.0691591167449952,3.363242460462956,-0.046297201156616216
3.3682423354629556,1.070155363082886,3.3682424604629557,-0.03931834983825684
3.3732423354629555,1.072147855758667,3.3732424604629556,-0.02735460472106934
3.378242335462956,1.0661703777313234,3.378242460462956,-0.02934856224060059
3.3832423354629557,1.072147855758667,3.383242460462956,-0.010405965805053713
3.3882423354629556,1.0641778850555421,3.3882424604629557,-0.006418050765991212
3.3932423354629555,1.0621853923797608,3.3932424604629556,-0.000436178207397461
3.398242335462956,1.0651741313934326,3.398242460462956,0.02648224830627442
3.4032423354629557,1.0661703777313234,3.403242460462956,0.03146714210510254
3.4082423354629556,1.0661703777313234,3.4082424604629558,0.0454248447418213
3.4132423354629555,1.0661703777313234,3.4132424604629557,0.04841578102111817
3.418242335462956,1.070155363082886,3.418242460462956,0.05639161109924317
3.4232423354629558,1.0711516094207765,3.423242460462956,0.06935233497619629
3.4282423354629556,1.0661703777313234,3.4282424604629558,0.07633118629455567
3.4332423354629555,1.0661703777313234,3.4332424604629557,0.09028888893127443
3.4382423354629554,1.072147855758667,3.4382424604629556,0.11421637916564943
3.4432423354629558,1.070155363082886,3.443242460462956,0.1411348056793213
3.4482423354629557,1.0631816387176514,3.448242460462956,0.17104416847229006
3.4532423354629556,1.072147855758667,3.4532424604629557,0.19696561622619632
3.4582423354629555,1.067166624069214,3.4582424604629556,0.2408326816558838
3.463242335462956,1.067166624069214,3.463242460462956,0.2607722568511963
3.4682423354629557,1.0711516094207765,3.468242460462956,0.2876906833648682
3.4732423354629556,1.0681628704071047,3.4732424604629557,0.31460910987854007
3.4782423354629555,1.072147855758667,3.4782424604629556,0.3355456638336182
3.483242335462956,1.0641778850555421,3.483242460462956,0.3505003452301026
3.4882423354629557,1.072147855758667,3.488242460462956,0.3614671115875245
3.4932423354629556,1.0651741313934326,3.4932424604629557,0.36445804786682134
3.4982423354629555,1.0681628704071047,3.4982424604629556,0.35747919654846194
3.503242335462956,1.0661703777313234,3.503242460462956,0.3235819187164307
3.5082423354629557,1.070155363082886,3.508242460462956,0.28170881080627447
3.5132423354629556,1.0691591167449952,3.5132424604629557,0.23385383033752444
3.5182423354629555,1.070155363082886,3.5182424604629556,0.17802301979064944
3.523242335462956,1.0651741313934326,3.523242460462956,0.1211952304840088
3.5282423354629557,1.067166624069214,3.528242460462956,0.049412759780883796
3.5332423354629556,1.0711516094207765,3.5332424604629558,-0.012399923324584963
3.5382423354629555,1.072147855758667,3.5382424604629557,-0.07221864891052247
3.543242335462956,1.0741403484344483,3.543242460462956,-0.13502831077575686
3.5482423354629558,1.067166624069214,3.548242460462956,-0.18388027000427248
3.5532423354629556,1.0731441020965578,3.5532424604629558,-0.21478661155700687
3.5582423354629555,1.072147855758667,3.5582424604629557,-0.23871410179138186
3.5632423354629554,1.0711516094207765,3.5632424604629556,-0.251674825668335
3.5682423354629558,1.0711516094207765,3.568242460462956,-0.2686234645843506
3.5732423354629557,1.072147855758667,3.573242460462956,-0.2795902309417725
3.5782423354629556,1.0741403484344483,3.5782424604629557,-0.27759627342224125
3.5832423354629555,1.0781253337860108,3.5832424604629556,-0.27859325218200687
3.588242335462956,1.070155363082886,3.588242460462956,-0.27261137962341314
3.5932423354629557,1.0691591167449952,3.593242460462956,-0.2746053371429444
3.5982423354629556,1.0661703777313234,3.5982424604629557,-0.26164461326599125
3.6032423354629555,1.0691591167449952,3.6032424604629556,-0.26064763450622563
3.608242335462956,1.0691591167449952,3.608242460462956,-0.23971108055114748
3.6132423354629557,1.067166624069214,3.613242460462956,-0.235723165512085
3.6182423354629556,1.072147855758667,3.6182424604629557,-0.235723165512085
3.6232423354629555,1.0661703777313234,3.6232424604629556,-0.2237594203948975
3.628242335462956,1.070155363082886,3.628242460462956,-0.2157835903167725
3.6332423354629557,1.072147855758667,3.633242460462956,-0.21378963279724122
3.6382423354629556,1.0651741313934326,3.6382424604629557,-0.19883495140075685
3.6432423354629555,1.070155363082886,3.6432424604629556,-0.19783797264099123
3.648242335462956,1.067166624069214,3.648242460462956,-0.17989235496520997
3.6532423354629557,1.0681628704071047,3.653242460462956,-0.1649376735687256
3.6582423354629556,1.072147855758667,3.6582424604629558,-0.15397090721130374
3.6632423354629555,1.0611891460418703,3.6632424604629557,-0.14400111961364748
3.668242335462956,1.0731441020965578,3.668242460462956,-0.14101018333435061
3.6732423354629558,1.0691591167449952,3.673242460462956,-0.14101018333435061
3.6782423354629556,1.0661703777313234,3.6782424604629558,-0.13602528953552248
3.6832423354629555,1.059196653366089,3.6832424604629557,-0.13004341697692873
3.6882423354629554,1.0631816387176514,3.6882424604629556,-0.1250585231781006
3.6932423354629558,1.0711516094207765,3.693242460462956,-0.11409175682067872
3.6982423354629557,1.0761328411102296,3.698242460462956,-0.11508873558044436
3.7032423354629556,1.0681628704071047,3.7032424604629557,-0.11807967185974122
3.7082423354629555,1.0651741313934326,3.7082424604629556,-0.11409175682067872
3.713242335462956,1.0661703777313234,3.713242460462956,-0.10611592674255373
3.7182423354629557,1.0681628704071047,3.718242460462956,-0.09614613914489747
3.7232423354629556,1.0661703777313234,3.7232424604629557,-0.09614613914489747
3.7282423354629555,1.067166624069214,3.7282424604629556,-0.09514916038513185
3.733242335462956,1.0681628704071047,3.733242460462956,-0.10412196922302247
3.7382423354629557,1.0641778850555421,3.738242460462956,-0.09614613914489747
3.7432423354629556,1.067166624069214,3.7432424604629557,-0.09415218162536622
3.7482423354629555,1.0691591167449952,3.7482424604629556,-0.09514916038513185
3.753242335462956,1.0661703777313234,3.753242460462956,-0.0931552028656006
3.7582423354629557,1.0651741313934326,3.758242460462956,-0.0891672878265381
3.7632423354629556,1.0641778850555421,3.7632424604629557,-0.09016426658630372
3.7682423354629555,1.0611891460418703,3.7682424604629556,-0.0971431179046631
3.773242335462956,1.0661703777313234,3.773242460462956,-0.09514916038513185
3.7782423354629557,1.0641778850555421,3.778242460462956,-0.08817030906677248
3.7832423354629556,1.067166624069214,3.7832424604629558,-0.09215822410583498
3.7882423354629555,1.0681628704071047,3.7882424604629557,-0.09614613914489747
3.793242335462956,1.0641778850555421,3.793242460462956,-0.09514916038513185
3.7982423354629558,1.0681628704071047,3.798242460462956,-0.08817030906677248
3.8032423354629556,1.067166624069214,3.8032424604629558,-0.08418239402770997
3.8082423354629555,1.0631816387176514,3.8082424604629557,-0.0732156276702881
3.8132423354629554,1.0681628704071047,3.8132424604629556,-0.07720354270935059
3.8182423354629558,1.0661703777313234,3.818242460462956,-0.0732156276702881
3.8232423354629557,1.0711516094207765,3.823242460462956,-0.06623677635192872
3.8282423354629556,1.0631816387176514,3.8282424604629557,-0.06324584007263184
3.8332423354629555,1.0661703777313234,3.8332424604629556,-0.06324584007263184
3.838242335462956,1.0711516094207765,3.838242460462956,-0.06823073387145998
3.8432423354629557,1.0681628704071047,3.843242460462956,-0.0652397975921631
3.8482423354629556,1.070155363082886,3.8482424604629557,-0.06823073387145998
3.8532423354629555,1.0572041606903078,3.8532424604629556,-0.06424281883239746
3.858242335462956,1.0631816387176514,3.858242460462956,-0.04530022239685059
3.8632423354629557,1.0691591167449952,3.863242460462956,-0.024363668441772464
3.8682423354629556,1.0681628704071047,3.8682424604629557,-0.016387838363647465
3.8732423354629555,1.0711516094207765,3.8732424604629556,-0.006418050765991212
3.878242335462956,1.0681628704071047,3.878242460462956,0.0035517368316650396
3.8832423354629557,1.067166624069214,3.883242460462956,-0.001433156967163086
3.8882423354629556,1.0582004070281983,3.8882424604629557,-0.002430135726928711
3.8932423354629555,1.067166624069214,3.8932424604629556,-0.014393880844116212
3.898242335462956,1.0631816387176514,3.898242460462956,-0.014393880844116212
3.9032423354629557,1.0681628704071047,3.903242460462956,-0.016387838363647465
3.9082423354629556,1.0661703777313234,3.9082424604629558,-0.028351583480834965
3.9132423354629555,1.0621853923797608,3.9132424604629557,-0.03134251976013184
3.918242335462956,1.0621853923797608,3.918242460462956,-0.046297201156616216
3.9232423354629558,1.0661703777313234,3.923242460462956,-0.061251882553100594
3.9282423354629556,1.0641778850555421,3.9282424604629558,-0.07122167015075684
3.9332423354629555,1.0661703777313234,3.9332424604629557,-0.09215822410583498
3.938242335462956,1.0661703777313234,3.938242460462956,-0.09614613914489747
3.9432423354629558,1.067166624069214,3.943242460462956,-0.10013405418395997
3.9482423354629557,1.0661703777313234,3.948242460462956,-0.09913707542419435
3.9532423354629556,1.0532191753387452,3.9532424604629557,-0.08717333030700684
3.9582423354629555,1.0681628704071047,3.9582424604629556,-0.08119145774841309
3.963242335462956,1.0681628704071047,3.963242460462956,-0.0851793727874756
3.9682423354629557,1.0641778850555421,3.968242460462956,-0.07620656394958497
3.9732423354629556,1.0611891460418703,3.9732424604629557,-0.08418239402770997
3.9782423354629555,1.0681628704071047,3.9782424604629556,-0.08218843650817872
3.983242335462956,1.0711516094207765,3.983242460462956,-0.08418239402770997
3.9882423354629557,1.070155363082886,3.988242460462956,-0.10212801170349123
3.9932423354629556,1.0641778850555421,3.9932424604629557,-0.07022469139099122
3.9982423354629555,1.067166624069214,3.9982424604629556,0.03146714210510254
4.003242335462956,1.0572041606903078,4.003242460462956,0.22488102149963382
4.008242335462956,1.051226682662964,4.008242460462956,0.4501982212066651
4.013242335462956,1.0691591167449952,4.013242460462956,0.6805003147125245
4.018242335462956,1.0621853923797608,4.018242460462956,0.7821921482086183
4.023242335462956,1.0641778850555421,4.0232424604629555,0.6515879306793214
4.028242335462956,1.0611891460418703,4.028242460462955,0.3066332798004151
4.0332423354629565,1.0621853923797608,4.033242460462956,-0.03732439231872559
4.038242335462956,1.0651741313934326,4.038242460462956,-0.26563252830505374
4.043242335462956,1.0651741313934326,4.043242460462956,-0.3862669582366944
4.048242335462956,1.0641778850555421,4.048242460462956,-0.4062065334320069
4.053242335462956,1.0661703777313234,4.053242460462956,-0.363336446762085
4.058242335462956,1.0641778850555421,4.058242460462956,-0.30949959373474123
4.063242335462956,1.0611891460418703,4.063242460462956,-0.24668993186950686
4.068242335462956,1.067166624069214,4.0682424604629555,-0.19983193016052248
4.073242335462956,1.0631816387176514,4.073242460462955,-0.1529739284515381
4.0782423354629564,1.067166624069214,4.078242460462956,-0.12007362937927248
4.083242335462956,1.0661703777313234,4.083242460462956,-0.08717333030700684
4.088242335462956,1.0661703777313234,4.088242460462956,-0.07122167015075684
4.093242335462956,1.0681628704071047,4.093242460462956,-0.0692277126312256
4.098242335462956,1.0661703777313234,4.098242460462956,-0.05327605247497559
4.103242335462956,1.0661703777313234,4.103242460462956,-0.046297201156616216
4.108242335462956,1.0681628704071047,4.1082424604629555,-0.04131230735778809
4.113242335462956,1.0651741313934326,4.113242460462955,-0.030345541000366214
4.1182423354629565,1.0651741313934326,4.118242460462956,-0.02536064720153809
4.123242335462956,1.0631816387176514,4.123242460462956,-0.02735460472106934
4.128242335462956,1.0631816387176514,4.128242460462956,-0.02934856224060059
4.133242335462956,1.067166624069214,4.133242460462956,-0.010405965805053713
4.138242335462956,1.0661703777313234,4.138242460462956,-0.010405965805053713
4.143242335462956,1.0661703777313234,4.143242460462956,0.00753965187072754
4.148242335462956,1.067166624069214,4.1482424604629555,0.022494333267211918
4.153242335462956,1.0641778850555421,4.153242460462955,0.024488290786743167
4.1582423354629565,1.0631816387176514,4.158242460462956,0.037449014663696295
4.163242335462956,1.0711516094207765,4.163242460462956,0.04642182350158692
4.168242335462956,1.067166624069214,4.168242460462956,0.06037952613830567
4.173242335462956,1.0621853923797608,4.173242460462956,0.07533420753479005
4.178242335462956,1.0631816387176514,4.178242460462956,0.09228284645080567
4.183242335462956,1.0661703777313234,4.183242460462956,0.11820429420471193
4.188242335462956,1.067166624069214,4.188242460462956,0.15210157203674318
4.193242335462956,1.0621853923797608,4.1932424604629555,0.18201093482971192
4.198242335462956,1.070155363082886,4.198242460462955,0.21092331886291507
4.2032423354629564,1.0651741313934326,4.203242460462956,0.2318598728179932
4.208242335462956,1.0631816387176514,4.208242460462956,0.2438236179351807
4.213242335462956,1.0661703777313234,4.213242460462956,0.26176923561096194
4.218242335462956,1.0731441020965578,4.218242460462956,0.2916785984039307
4.223242335462956,1.067166624069214,4.223242460462956,0.3116181735992432
4.228242335462956,1.0621853923797608,4.228242460462956,0.32956379127502444
4.233242335462956,1.059196653366089,4.2332424604629555,0.3564822177886963
4.238242335462956,1.0681628704071047,4.238242460462955,0.36047013282775886
4.2432423354629565,1.067166624069214,4.243242460462956,0.35249430274963384
4.248242335462956,1.0661703777313234,4.248242460462956,0.3325547275543213
4.253242335462956,1.0631816387176514,4.253242460462956,0.2986574497222901
4.258242335462956,1.070155363082886,4.258242460462956,0.2438236179351807
4.263242335462956,1.0681628704071047,4.263242460462956,0.18001697731018068
4.268242335462956,1.0661703777313234,4.268242460462956,0.12019825172424319
4.273242335462956,1.0711516094207765,4.2732424604629555,0.05539463233947754
4.278242335462956,1.0661703777313234,4.278242460462955,-0.012399923324584963
4.2832423354629565,1.0651741313934326,4.283242460462956,-0.07022469139099122
4.288242335462956,1.0641778850555421,4.288242460462956,-0.1170826930999756
4.293242335462956,1.0582004070281983,4.293242460462956,-0.16094975852966312
4.298242335462956,1.0611891460418703,4.298242460462956,-0.18088933372497562
4.303242335462956,1.0631816387176514,4.303242460462956,-0.21678056907653812
4.308242335462956,1.0631816387176514,4.308242460462956,-0.23771712303161624
4.313242335462956,1.0661703777313234,4.313242460462956,-0.251674825668335
4.318242335462956,1.059196653366089,4.3182424604629555,-0.25965065574646
4.3232423354629566,1.0631816387176514,4.323242460462956,-0.2636385707855225
4.3282423354629564,1.0631816387176514,4.328242460462956,-0.2586536769866944
4.333242335462956,1.067166624069214,4.333242460462956,-0.2556627407073975
4.338242335462956,1.0681628704071047,4.338242460462956,-0.2526718044281006
4.343242335462956,1.070155363082886,4.343242460462956,-0.25067784690856937
4.348242335462956,1.072147855758667,4.348242460462956,-0.23173525047302249
4.353242335462956,1.070155363082886,4.353242460462956,-0.2207684841156006
4.358242335462956,1.0651741313934326,4.3582424604629555,-0.22575337791442873
4.363242335462956,1.0631816387176514,4.363242460462955,-0.21977150535583498
4.3682423354629565,1.0651741313934326,4.368242460462956,-0.21777754783630374
4.373242335462956,1.0631816387176514,4.373242460462956,-0.22774733543396
4.378242335462956,1.0631816387176514,4.378242460462956,-0.20880473899841312
4.383242335462956,1.0631816387176514,4.383242460462956,-0.19185610008239748
4.388242335462956,1.0582004070281983,4.388242460462956,-0.16394069480895998
4.393242335462956,1.0641778850555421,4.393242460462956,-0.15197694969177247
4.398242335462956,1.072147855758667,4.3982424604629555,-0.14998299217224123
4.403242335462956,1.0641778850555421,4.403242460462955,-0.15995277976989747
4.4082423354629565,1.0631816387176514,4.408242460462956,-0.15397090721130374
4.413242335462956,1.067166624069214,4.413242460462956,-0.1370222682952881
4.418242335462956,1.0631816387176514,4.418242460462956,-0.13403133201599124
4.423242335462956,1.0611891460418703,4.423242460462956,-0.12605550193786622
4.428242335462956,1.0681628704071047,4.428242460462956,-0.1170826930999756
4.433242335462956,1.0601928997039796,4.433242460462956,-0.11010384178161622
4.438242335462956,1.0572041606903078,4.438242460462956,-0.10212801170349123
4.443242335462956,1.059196653366089,4.4432424604629555,-0.09514916038513185
4.4482423354629566,1.0621853923797608,4.448242460462956,-0.10412196922302247
4.4532423354629564,1.0631816387176514,4.453242460462956,-0.1011310329437256
4.458242335462956,1.0621853923797608,4.458242460462956,-0.10212801170349123
4.463242335462956,1.0532191753387452,4.463242460462956,-0.10810988426208497
4.468242335462956,1.0641778850555421,4.468242460462956,-0.10412196922302247
4.473242335462956,1.059196653366089,4.473242460462956,-0.1011310329437256
4.478242335462956,1.0542154216766357,4.478242460462956,-0.10013405418395997
4.483242335462956,1.0621853923797608,4.4832424604629555,-0.10810988426208497
4.488242335462956,1.0661703777313234,4.488242460462955,-0.1011310329437256
4.4932423354629565,1.0631816387176514,4.493242460462956,-0.11209779930114748
4.498242335462956,1.059196653366089,4.498242460462956,-0.0931552028656006
4.503242335462956,1.0651741313934326,4.503242460462956,-0.08019447898864747
4.508242335462956,1.0611891460418703,4.508242460462956,-0.07720354270935059
4.513242335462956,1.0631816387176514,4.513242460462956,-0.06623677635192872
4.518242335462956,1.0661703777313234,4.518242460462956,-0.0652397975921631
4.523242335462956,1.0641778850555421,4.5232424604629555,-0.06324584007263184
4.528242335462956,1.0641778850555421,4.528242460462955,-0.07720354270935059
4.5332423354629565,1.0661703777313234,4.533242460462956,-0.07022469139099122
4.538242335462956,1.067166624069214,4.538242460462956,-0.09215822410583498
4.543242335462956,1.0631816387176514,4.543242460462956,-0.09514916038513185
4.548242335462956,1.0641778850555421,4.548242460462956,-0.08617635154724122
4.553242335462956,1.0611891460418703,4.553242460462956,-0.09614613914489747
4.558242335462956,1.0661703777313234,4.558242460462956,-0.09016426658630372
4.563242335462956,1.0621853923797608,4.563242460462956,-0.07421260643005372
4.568242335462956,1.0482379436492921,4.5682424604629555,-0.0732156276702881
4.5732423354629566,1.0611891460418703,4.573242460462956,-0.07122167015075684
4.5782423354629564,1.0641778850555421,4.578242460462956,-0.08218843650817872
4.583242335462956,1.0601928997039796,4.583242460462956,-0.07520958518981935
4.588242335462956,1.0611891460418703,4.588242460462956,-0.08218843650817872
4.593242335462956,1.059196653366089,4.593242460462956,-0.08817030906677248
4.598242335462956,1.059196653366089,4.598242460462956,-0.09016426658630372
4.603242335462956,1.0651741313934326,4.603242460462956,-0.07820052146911623
4.608242335462956,1.059196653366089,4.6082424604629555,-0.06823073387145998
4.613242335462956,1.0661703777313234,4.613242460462955,-0.060254903793334966
4.6182423354629565,1.0661703777313234,4.618242460462956,-0.05327605247497559
4.623242335462956,1.0611891460418703,4.623242460462956,-0.05826094627380372
4.628242335462956,1.0651741313934326,4.628242460462956,-0.061251882553100594
4.633242335462956,1.0621853923797608,4.633242460462956,-0.06723375511169434
4.638242335462956,1.0631816387176514,4.638242460462956,-0.06324584007263184
4.643242335462956,1.0651741313934326,4.643242460462956,-0.060254903793334966
4.648242335462956,1.059196653366089,4.6482424604629555,-0.07421260643005372
4.653242335462956,1.0661703777313234,4.653242460462955,-0.0692277126312256
4.6582423354629565,1.0572041606903078,4.658242460462956,-0.08218843650817872
4.663242335462956,1.0621853923797608,4.663242460462956,-0.06623677635192872
4.668242335462956,1.0641778850555421,4.668242460462956,-0.06723375511169434
4.673242335462956,1.067166624069214,4.673242460462956,-0.05826094627380372
4.678242335462956,1.0651741313934326,4.678242460462956,-0.05327605247497559
4.683242335462956,1.0641778850555421,4.683242460462956,-0.04430324363708497
4.688242335462956,1.0631816387176514,4.688242460462956,-0.03931834983825684
4.693242335462956,1.0572041606903078,4.6932424604629555,-0.04131230735778809
4.6982423354629566,1.0621853923797608,4.698242460462956,-0.046297201156616216
4.7032423354629564,1.0611891460418703,4.703242460462956,-0.03732439231872559
4.708242335462956,1.0611891460418703,4.708242460462956,-0.014393880844116212
4.713242335462956,1.0601928997039796,4.713242460462956,0.0035517368316650396
4.718242335462956,1.0641778850555421,4.718242460462956,0.01152756690979004
4.723242335462956,1.0631816387176514,4.723242460462956,0.015515481948852541
4.728242335462956,1.059196653366089,4.728242460462956,0.010530588150024415
4.733242335462956,1.067166624069214,4.7332424604629555,0.0025547580718994142
4.738242335462956,1.059196653366089,4.738242460462955,-0.008412008285522462
4.7432423354629565,1.0661703777313234,4.743242460462956,-0.018381795883178714
4.748242335462956,1.0621853923797608,4.748242460462956,-0.02536064720153809
4.753242335462956,1.0631816387176514,4.753242460462956,-0.021372732162475587
4.758242335462956,1.0651741313934326,4.758242460462956,-0.03333647727966309
4.763242335462956,1.0582004070281983,4.763242460462956,-0.04330626487731934
4.768242335462956,1.0621853923797608,4.768242460462956,-0.061251882553100594
4.773242335462956,1.0651741313934326,4.7732424604629555,-0.07421260643005372
4.778242335462956,1.0611891460418703,4.778242460462955,-0.0971431179046631
4.7832423354629565,1.0631816387176514,4.783242460462956,-0.11409175682067872
4.788242335462956,1.0582004070281983,4.788242460462956,-0.11907665061950685
4.793242335462956,1.0651741313934326,4.793242460462956,-0.1091068630218506
4.798242335462956,1.0601928997039796,4.798242460462956,-0.10412196922302247
4.803242335462956,1.0601928997039796,4.803242460462956,-0.10412196922302247
4.808242335462956,1.0621853923797608,4.808242460462956,-0.09913707542419435
4.813242335462956,1.0631816387176514,4.813242460462956,-0.09814009666442872
4.818242335462956,1.0601928997039796,4.8182424604629555,-0.09116124534606934
4.8232423354629566,1.0582004070281983,4.823242460462956,-0.09614613914489747
4.8282423354629564,1.0572041606903078,4.828242460462956,-0.1091068630218506
4.833242335462956,1.0621853923797608,4.833242460462956,-0.11010384178161622
4.838242335462956,1.056207914352417,4.838242460462956,-0.09614613914489747
4.843242335462956,1.0631816387176514,4.843242460462956,-0.008412008285522462
4.848242335462956,1.0542154216766357,4.848242460462956,0.1730381259918213
4.853242335462956,1.0601928997039796,4.853242460462956,0.39735834693908695
4.858242335462956,1.0472416973114014,4.8582424604629555,0.6326453342437744
4.863242335462956,1.0601928997039796,4.863242460462955,0.796149850845337
4.8682423354629565,1.059196653366089,4.868242460462956,0.7433099765777589
4.873242335462956,1.0572041606903078,4.873242460462956,0.4571770725250245
4.878242335462956,1.0651741313934326,4.878242460462956,0.09128586769104005
4.883242335462956,1.0631816387176514,4.883242460462956,-0.19385005760192872
4.888242335462956,1.0611891460418703,4.888242460462956,-0.35037572288513186
4.893242335462956,1.0601928997039796,4.893242460462956,-0.3992276821136475
4.898242335462956,1.0552116680145265,4.8982424604629555,-0.3762971706390381
4.903242335462956,1.0681628704071047,4.903242460462955,-0.31049657249450685
4.9082423354629565,1.0601928997039796,4.908242460462956,-0.25965065574646
4.913242335462956,1.0621853923797608,4.913242460462956,-0.20282286643981937
4.918242335462956,1.0572041606903078,4.918242460462956,-0.16593465232849122
4.923242335462956,1.0601928997039796,4.923242460462956,-0.14599507713317872
4.928242335462956,1.0661703777313234,4.928242460462956,-0.13004341697692873
4.933242335462956,1.0611891460418703,4.933242460462956,-0.12406154441833497
4.938242335462956,1.056207914352417,4.938242460462956,-0.11508873558044436
4.943242335462956,1.0601928997039796,4.9432424604629555,-0.09814009666442872
4.9482423354629566,1.0601928997039796,4.948242460462956,-0.07919750022888185
4.9532423354629564,1.0611891460418703,4.953242460462956,-0.08817030906677248
4.958242335462956,1.0572041606903078,4.958242460462956,-0.0692277126312256
4.963242335462956,1.0601928997039796,4.963242460462956,-0.05327605247497559
4.968242335462956,1.0582004070281983,4.968242460462956,-0.04230928611755372
4.973242335462956,1.0572041606903078,4.973242460462956,-0.034333456039428716
4.978242335462956,1.0552116680145265,4.978242460462956,-0.02336668968200684
4.983242335462956,1.0611891460418703,4.9832424604629555,-0.011402944564819337
4.988242335462956,1.0572041606903078,4.988242460462955,-0.011402944564819337
4.9932423354629565,1.059196653366089,4.993242460462956,-0.008412008285522462
4.998242335462956,1.0631816387176514,4.998242460462956,0.014518503189086917
5.003242335462956,1.0572041606903078,5.003242460462956,0.022494333267211918
5.008242335462956,1.0582004070281983,5.008242460462956,0.03246412086486817
5.013242335462956,1.0621853923797608,5.013242460462956,0.051406717300415045
5.018242335462956,1.059196653366089,5.018242460462956,0.062373483657836924
5.023242335462956,1.059196653366089,5.0232424604629555,0.06835535621643067
5.028242335462956,1.0601928997039796,5.028242460462955,0.08729795265197755
5.0332423354629565,1.0572041606903078,5.033242460462956,0.10823450660705568
5.038242335462956,1.0601928997039796,5.038242460462956,0.11920127296447755
5.043242335462956,1.0621853923797608,5.043242460462956,0.1441257419586182
5.048242335462956,1.056207914352417,5.048242460462956,0.17702604103088382
5.053242335462956,1.056207914352417,5.053242460462956,0.2039444675445557
5.058242335462956,1.056207914352417,5.058242460462956,0.23684476661682133
5.063242335462956,1.059196653366089,5.063242460462956,0.2727360019683838
5.068242335462956,1.0611891460418703,5.0682424604629555,0.27772089576721193
5.0732423354629566,1.0552116680145265,5.073242460462956,0.2916785984039307
5.0782423354629564,1.0572041606903078,5.078242460462956,0.30862723731994635
5.083242335462956,1.056207914352417,5.083242460462956,0.3215879611968995
5.088242335462956,1.0621853923797608,5.088242460462956,0.3156060886383057
5.093242335462956,1.051226682662964,5.093242460462956,0.31261515235900883
5.098242335462956,1.0631816387176514,5.098242460462956,0.3056363010406494
5.103242335462956,1.0641778850555421,5.103242460462956,0.2677511081695557
5.108242335462956,1.0631816387176514,5.1082424604629555,0.2208931064605713
5.113242335462956,1.0582004070281983,5.113242460462955,0.1650622959136963
5.1182423354629565,1.0582004070281983,5.118242460462956,0.09427680397033693
5.123242335462956,1.0661703777313234,5.123242460462956,0.038445993423461916
5.128242335462956,1.059196653366089,5.128242460462956,-0.02735460472106934
5.133242335462956,1.0611891460418703,5.133242460462956,-0.09116124534606934
5.138242335462956,1.0572041606903078,5.138242460462956,-0.1489860134124756
5.143242335462956,1.059196653366089,5.143242460462956,-0.187868185043335
5.148242335462956,1.0542154216766357,5.1482424604629555,-0.22774733543396
5.153242335462956,1.0601928997039796,5.153242460462955,-0.23871410179138186
5.1582423354629565,1.0611891460418703,5.158242460462956,-0.24270201683044437
5.163242335462956,1.0631816387176514,5.163242460462956,-0.2576566982269287
5.168242335462956,1.0641778850555421,5.168242460462956,-0.2626415920257569
5.173242335462956,1.0582004070281983,5.173242460462956,-0.267626485824585
5.178242335462956,1.0532191753387452,5.178242460462956,-0.2696204433441162
5.183242335462956,1.0552116680145265,5.183242460462956,-0.2686234645843506
5.188242335462956,1.0532191753387452,5.188242460462956,-0.24968086814880375
5.193242335462956,1.0502304363250734,5.1932424604629555,-0.23472618675231938
5.1982423354629566,1.0582004070281983,5.198242460462956,-0.21678056907653812
5.2032423354629564,1.0572041606903078,5.203242460462956,-0.2127926540374756
5.208242335462956,1.0611891460418703,5.208242460462956,-0.21079869651794436
5.213242335462956,1.0382754802703857,5.213242460462956,-0.2078077602386475
5.218242335462956,1.059196653366089,5.218242460462956,-0.20082890892028812
5.223242335462956,1.0582004070281983,5.223242460462956,-0.18088933372497562
5.228242335462956,1.0601928997039796,5.228242460462956,-0.16593465232849122
5.233242335462956,1.059196653366089,5.2332424604629555,-0.15596486473083498
5.238242335462956,1.059196653366089,5.238242460462955,-0.14200716209411623
5.2432423354629565,1.059196653366089,5.243242460462956,-0.13901622581481934
5.248242335462956,1.0621853923797608,5.248242460462956,-0.13901622581481934
5.253242335462956,1.0611891460418703,5.253242460462956,-0.1330343532562256
5.258242335462956,1.0621853923797608,5.258242460462956,-0.1330343532562256
5.263242335462956,1.0572041606903078,5.263242460462956,-0.13203737449645997
5.268242335462956,1.0582004070281983,5.268242460462956,-0.13203737449645997
5.273242335462956,1.0472416973114014,5.2732424604629555,-0.12804945945739749
5.278242335462956,1.059196653366089,5.278242460462955,-0.11807967185974122
5.2832423354629565,1.0611891460418703,5.283242460462956,-0.10810988426208497
5.288242335462956,1.0601928997039796,5.288242460462956,-0.11209779930114748
5.293242335462956,1.0572041606903078,5.293242460462956,-0.11209779930114748
5.298242335462956,1.0621853923797608,5.298242460462956,-0.10810988426208497
5.303242335462956,1.0532191753387452,5.303242460462956,-0.11807967185974122
5.308242335462956,1.0552116680145265,5.308242460462956,-0.10711290550231935
5.313242335462956,1.056207914352417,5.313242460462956,-0.10212801170349123
5.318242335462956,1.0542154216766357,5.3182424604629555,-0.09814009666442872
5.3232423354629566,1.0611891460418703,5.323242460462956,-0.09814009666442872
5.3282423354629564,1.0621853923797608,5.328242460462956,-0.07820052146911623
5.333242335462956,1.0502304363250734,5.333242460462956,-0.07520958518981935
5.338242335462956,1.0582004070281983,5.338242460462956,-0.07221864891052247
5.343242335462956,1.0542154216766357,5.343242460462956,-0.07421260643005372
5.348242335462956,1.059196653366089,5.348242460462956,-0.08019447898864747
5.353242335462956,1.0621853923797608,5.353242460462956,-0.07820052146911623
5.358242335462956,1.0611891460418703,5.3582424604629555,-0.07122167015075684
5.363242335462956,1.0601928997039796,5.363242460462955,-0.06623677635192872
5.3682423354629565,1.0572041606903078,5.368242460462956,-0.07820052146911623
5.373242335462956,1.0462454509735108,5.373242460462956,-0.08318541526794435
5.378242335462956,1.0582004070281983,5.378242460462956,-0.08318541526794435
5.383242335462956,1.059196653366089,5.383242460462956,-0.07520958518981935
5.388242335462956,1.0611891460418703,5.388242460462956,-0.0851793727874756
5.393242335462956,1.043256711959839,5.393242460462956,-0.07919750022888185
5.398242335462956,1.0572041606903078,5.3982424604629555,-0.07620656394958497
5.403242335462956,1.0572041606903078,5.403242460462955,-0.07919750022888185
5.4082423354629565,1.0601928997039796,5.408242460462956,-0.07720354270935059
5.413242335462956,1.0611891460418703,5.413242460462956,-0.0732156276702881
5.418242335462956,1.0532191753387452,5.418242460462956,-0.0851793727874756
5.423242335462956,1.0601928997039796,5.423242460462956,-0.08418239402770997
5.428242335462956,1.0611891460418703,5.428242460462956,-0.08418239402770997
5.433242335462956,1.0631816387176514,5.433242460462956,-0.07421260643005372
5.438242335462956,1.0552116680145265,5.438242460462956,-0.07421260643005372
5.443242335462956,1.0611891460418703,5.4432424604629555,-0.08318541526794435
5.4482423354629566,1.0582004070281983,5.448242460462956,-0.07720354270935059
5.4532423354629564,1.0601928997039796,5.453242460462956,-0.07620656394958497
5.458242335462956,1.0582004070281983,5.458242460462956,-0.08019447898864747
5.463242335462956,1.0611891460418703,5.463242460462956,-0.07520958518981935
5.468242335462956,1.0582004070281983,5.468242460462956,-0.0732156276702881
5.473242335462956,1.0572041606903078,5.473242460462956,-0.07022469139099122
5.478242335462956,1.0621853923797608,5.478242460462956,-0.07421260643005372
5.483242335462956,1.056207914352417,5.4832424604629555,-0.07122167015075684
5.488242335462956,1.056207914352417,5.488242460462955,-0.0732156276702881
5.4932423354629565,1.0372792339324952,5.493242460462956,-0.06823073387145998
5.498242335462956,1.0601928997039796,5.498242460462956,-0.06823073387145998
5.503242335462956,1.0582004070281983,5.503242460462956,-0.06823073387145998
5.508242335462956,1.0611891460418703,5.508242460462956,-0.06324584007263184
5.513242335462956,1.0572041606903078,5.513242460462956,-0.06424281883239746
5.518242335462956,1.0601928997039796,5.518242460462956,-0.06723375511169434
5.523242335462956,1.0582004070281983,5.5232424604629555,-0.07421260643005372
5.528242335462956,1.0611891460418703,5.528242460462955,-0.07520958518981935
5.5332423354629565,1.0601928997039796,5.533242460462956,-0.07122167015075684
5.538242335462956,1.0621853923797608,5.538242460462956,-0.0732156276702881
5.543242335462956,1.0502304363250734,5.543242460462956,-0.0652397975921631
5.548242335462956,1.0631816387176514,5.548242460462956,-0.06424281883239746
5.553242335462956,1.0611891460418703,5.553242460462956,-0.06623677635192872
5.558242335462956,1.0542154216766357,5.558242460462956,-0.07022469139099122
5.563242335462956,1.059196653366089,5.563242460462956,-0.06424281883239746
5.568242335462956,1.0641778850555421,5.5682424604629555,-0.05427303123474122
5.5732423354629566,1.0582004070281983,5.573242460462956,-0.05427303123474122
5.5782423354629564,1.0621853923797608,5.578242460462956,-0.04230928611755372
5.583242335462956,1.0542154216766357,5.583242460462956,-0.03134251976013184
5.588242335462956,1.0601928997039796,5.588242460462956,-0.036327413558959964
5.593242335462956,1.0621853923797608,5.593242460462956,-0.020375753402709963
5.598242335462956,1.0552116680145265,5.598242460462956,-0.015390859603881838
5.603242335462956,1.0522229290008547,5.603242460462956,-0.000436178207397461
5.608242335462956,1.0552116680145265,5.6082424604629555,0.00753965187072754
5.613242335462956,1.0582004070281983,5.613242460462955,0.012524545669555666
5.6182423354629565,1.0582004070281983,5.618242460462956,0.00753965187072754
5.623242335462956,1.0572041606903078,5.623242460462956,-0.010405965805053713
5.628242335462956,1.0532191753387452,5.628242460462956,-0.014393880844116212
5.633242335462956,1.056207914352417,5.633242460462956,-0.035330434799194343
5.638242335462956,1.059196653366089,5.638242460462956,-0.04330626487731934
5.643242335462956,1.0582004070281983,5.643242460462956,-0.05227907371520997
5.648242335462956,1.0572041606903078,5.6482424604629555,-0.05527000999450684
5.653242335462956,1.0482379436492921,5.653242460462955,-0.07122167015075684
5.6582423354629565,1.056207914352417,5.658242460462956,-0.08019447898864747
5.663242335462956,1.0492341899871827,5.663242460462956,-0.09016426658630372
5.668242335462956,1.0582004070281983,5.668242460462956,-0.10212801170349123
5.673242335462956,1.056207914352417,5.673242460462956,-0.1051189479827881
5.678242335462956,1.0611891460418703,5.678242460462956,-0.1011310329437256
5.683242335462956,1.0621853923797608,5.683242460462956,-0.10611592674255373
5.688242335462956,1.0611891460418703,5.688242460462956,-0.10212801170349123
5.693242335462956,1.059196653366089,5.6932424604629555,-0.10412196922302247
5.6982423354629566,1.0542154216766357,5.698242460462956,-0.09514916038513185
5.7032423354629564,1.056207914352417,5.703242460462956,-0.09514916038513185
5.708242335462956,1.0552116680145265,5.708242460462956,-0.10013405418395997
5.713242335462956,1.056207914352417,5.713242460462956,-0.11010384178161622
5.718242335462956,1.0532191753387452,5.718242460462956,-0.12007362937927248
5.723242335462956,1.051226682662964,5.723242460462956,-0.13104039573669435
5.728242335462956,1.0552116680145265,5.728242460462956,-0.11010384178161622
5.733242335462956,1.0542154216766357,5.7332424604629555,-0.010405965805053713
5.738242335462956,1.0572041606903078,5.738242460462955,0.17403510475158693
5.7432423354629565,1.0572041606903078,5.743242460462956,0.4172979221343995
5.748242335462956,1.0582004070281983,5.748242460462956,0.6505909519195557
5.753242335462956,1.0582004070281983,5.753242460462956,0.8011347446441651
5.758242335462956,1.051226682662964,5.758242460462956,0.732343210220337
5.763242335462956,1.0532191753387452,5.763242460462956,0.4182949008941651
5.768242335462956,1.056207914352417,5.768242460462956,0.0573885898590088
5.773242335462956,1.0532191753387452,5.7732424604629555,-0.21777754783630374
5.778242335462956,1.0532191753387452,5.778242460462955,-0.363336446762085
5.7832423354629565,1.0472416973114014,5.783242460462956,-0.41218840599060064
5.788242335462956,1.0542154216766357,5.788242460462956,-0.3753001918792725
5.793242335462956,1.0532191753387452,5.793242460462956,-0.3194693813323975
5.798242335462956,1.0611891460418703,5.798242460462956,-0.2566597194671631
5.803242335462956,1.0582004070281983,5.803242460462956,-0.2127926540374756
5.808242335462956,1.0542154216766357,5.808242460462956,-0.1848772487640381
5.813242335462956,1.0542154216766357,5.813242460462956,-0.1569618434906006
5.818242335462956,1.056207914352417,5.8182424604629555,-0.12306456565856935
5.8232423354629566,1.0522229290008547,5.823242460462956,-0.11807967185974122
5.8282423354629564,1.056207914352417,5.828242460462956,-0.0931552028656006
5.833242335462956,1.0601928997039796,5.833242460462956,-0.07520958518981935
5.838242335462956,1.0532191753387452,5.838242460462956,-0.08019447898864747
5.843242335462956,1.0392717266082765,5.843242460462956,-0.06823073387145998
5.848242335462956,1.0522229290008547,5.848242460462956,-0.059257925033569345
5.853242335462956,1.0542154216766357,5.853242460462956,-0.048291158676147465
5.858242335462956,1.0572041606903078,5.8582424604629555,-0.036327413558959964
5.863242335462956,1.0552116680145265,5.863242460462955,-0.02735460472106934
5.8682423354629565,1.056207914352417,5.868242460462956,-0.020375753402709963
5.873242335462956,1.0552116680145265,5.873242460462956,-0.014393880844116212
5.878242335462956,1.0572041606903078,5.878242460462956,-0.012399923324584963
5.883242335462956,1.0601928997039796,5.883242460462956,-0.007415029525756837
5.888242335462956,1.0392717266082765,5.888242460462956,0.0015577793121337893
5.893242335462956,1.0482379436492921,5.893242460462956,0.021497354507446293
5.898242335462956,1.056207914352417,5.8982424604629555,0.03645203590393067
5.903242335462956,1.0572041606903078,5.903242460462955,0.0454248447418213
5.9082423354629565,1.0532191753387452,5.908242460462956,0.06436744117736817
5.913242335462956,1.0542154216766357,5.913242460462956,0.0813160800933838
5.918242335462956,1.0572041606903078,5.918242460462956,0.10025867652893068
5.923242335462956,1.0552116680145265,5.923242460462956,0.11720731544494631
5.928242335462956,1.0532191753387452,5.928242460462956,0.1361499118804932
5.933242335462956,1.056207914352417,5.933242460462956,0.15409552955627442
5.938242335462956,1.0502304363250734,5.938242460462956,0.18500187110900881
5.943242335462956,1.051226682662964,5.9432424604629555,0.2119202976226807
5.9482423354629566,1.0582004070281983,5.948242460462956,0.23584778785705568
5.9532423354629564,1.0601928997039796,5.953242460462956,0.2707420444488526
5.958242335462956,1.056207914352417,5.958242460462956,0.2996544284820557
5.963242335462956,1.0552116680145265,5.963242460462956,0.32457889747619634
5.968242335462956,1.056207914352417,5.968242460462956,0.32557587623596196
5.973242335462956,1.059196653366089,5.973242460462956,0.33654264259338385
5.978242335462956,1.0532191753387452,5.978242460462956,0.34252451515197757
5.983242335462956,1.0572041606903078,5.9832424604629555,0.3395335788726807
5.988242335462957,1.0601928997039796,5.988242460462956,0.31361213111877445
5.9932423354629565,1.0552116680145265,5.993242460462956,0.2767239170074463
5.998242335462956,1.056207914352417,5.998242460462956,0.2318598728179932
6.003242335462956,1.0492341899871827,6.003242460462956,0.17503208351135255
6.008242335462956,1.0542154216766357,6.008242460462956,0.1132194004058838
6.013242335462956,1.051226682662964,6.013242460462956,0.0454248447418213
6.018242335462956,1.0582004070281983,6.018242460462956,-0.016387838363647465
6.023242335462956,1.0482379436492921,6.0232424604629555,-0.09116124534606934
6.028242335462956,1.0552116680145265,6.028242460462955,-0.14200716209411623
6.0332423354629565,1.0582004070281983,6.033242460462956,-0.1848772487640381
6.038242335462956,1.0502304363250734,6.038242460462956,-0.2078077602386475
6.043242335462956,1.051226682662964,6.043242460462956,-0.23073827171325687
6.048242335462956,1.0552116680145265,6.048242460462956,-0.24668993186950686
6.053242335462956,1.0542154216766357,6.053242460462956,-0.24868388938903813
6.058242335462956,1.0582004070281983,6.058242460462956,-0.24270201683044437
6.063242335462956,1.0462454509735108,6.063242460462956,-0.2556627407073975
6.068242335462956,1.0532191753387452,6.0682424604629555,-0.23771712303161624
6.0732423354629566,1.0482379436492921,6.073242460462956,-0.24469597434997561
6.0782423354629564,1.0462454509735108,6.078242460462956,-0.24170503807067875
6.083242335462956,1.0532191753387452,6.083242460462956,-0.23971108055114748
6.088242335462956,1.0522229290008547,6.088242460462956,-0.23173525047302249
6.093242335462956,1.0492341899871827,6.093242460462956,-0.21777754783630374
6.098242335462956,1.0582004070281983,6.098242460462956,-0.21079869651794436
6.103242335462956,1.056207914352417,6.103242460462956,-0.2157835903167725
6.108242335462956,1.0582004070281983,6.1082424604629555,-0.19385005760192872
6.113242335462957,1.0542154216766357,6.113242460462956,-0.19185610008239748
6.1182423354629565,1.0502304363250734,6.118242460462956,-0.18587422752380373
6.123242335462956,1.0452492046356203,6.123242460462956,-0.17789839744567873
6.128242335462956,1.0601928997039796,6.128242460462956,-0.17490746116638187
6.133242335462956,1.056207914352417,6.133242460462956,-0.1689255886077881
6.138242335462956,1.059196653366089,6.138242460462956,-0.16194673728942874
6.143242335462956,1.056207914352417,6.143242460462956,-0.14300414085388186
6.148242335462956,1.0492341899871827,6.1482424604629555,-0.14001320457458497
6.153242335462956,1.056207914352417,6.153242460462955,-0.12306456565856935
6.1582423354629565,1.0502304363250734,6.158242460462956,-0.12306456565856935
6.163242335462956,1.0582004070281983,6.163242460462956,-0.11807967185974122
6.168242335462956,1.0502304363250734,6.168242460462956,-0.11907665061950685
6.173242335462956,1.040267972946167,6.173242460462956,-0.11608571434020998
6.178242335462956,1.0542154216766357,6.178242460462956,-0.11907665061950685
6.183242335462956,1.0522229290008547,6.183242460462956,-0.1250585231781006
6.188242335462956,1.0552116680145265,6.188242460462956,-0.1170826930999756
6.193242335462956,1.0532191753387452,6.1932424604629555,-0.11508873558044436
6.1982423354629566,1.056207914352417,6.198242460462956,-0.10810988426208497
6.2032423354629564,1.0542154216766357,6.203242460462956,-0.11110082054138185
6.208242335462956,1.0542154216766357,6.208242460462956,-0.1091068630218506
6.213242335462956,1.0532191753387452,6.213242460462956,-0.1091068630218506
6.218242335462956,1.056207914352417,6.218242460462956,-0.10013405418395997
6.223242335462956,1.043256711959839,6.223242460462956,-0.09913707542419435
6.228242335462956,1.0482379436492921,6.228242460462956,-0.08019447898864747
6.233242335462956,1.0572041606903078,6.2332424604629555,-0.08418239402770997
6.238242335462957,1.0552116680145265,6.238242460462956,-0.08717333030700684
6.2432423354629565,1.0502304363250734,6.243242460462956,-0.09215822410583498
6.248242335462956,1.056207914352417,6.248242460462956,-0.08218843650817872
6.253242335462956,1.051226682662964,6.253242460462956,-0.07720354270935059
6.258242335462956,1.0502304363250734,6.258242460462956,-0.07720354270935059
6.263242335462956,1.0522229290008547,6.263242460462956,-0.08717333030700684
6.268242335462956,1.056207914352417,6.268242460462956,-0.0851793727874756
6.273242335462956,1.0542154216766357,6.2732424604629555,-0.08617635154724122
6.278242335462956,1.0482379436492921,6.278242460462955,-0.0931552028656006
6.2832423354629565,1.0482379436492921,6.283242460462956,-0.08817030906677248
6.288242335462956,1.0502304363250734,6.288242460462956,-0.08418239402770997
6.293242335462956,1.0502304363250734,6.293242460462956,-0.08717333030700684
6.298242335462956,1.051226682662964,6.298242460462956,-0.09116124534606934
6.303242335462956,1.0522229290008547,6.303242460462956,-0.09415218162536622
6.308242335462956,1.0532191753387452,6.308242460462956,-0.09215822410583498
6.313242335462956,1.051226682662964,6.313242460462956,-0.08717333030700684
6.318242335462956,1.0532191753387452,6.3182424604629555,-0.0851793727874756
6.3232423354629566,1.056207914352417,6.323242460462956,-0.08019447898864747
6.3282423354629564,1.056207914352417,6.328242460462956,-0.0732156276702881
6.333242335462956,1.056207914352417,6.333242460462956,-0.08218843650817872
6.338242335462956,1.0582004070281983,6.338242460462956,-0.08019447898864747
6.343242335462956,1.0572041606903078,6.343242460462956,-0.07919750022888185
6.348242335462956,1.0552116680145265,6.348242460462956,-0.07520958518981935
6.353242335462956,1.059196653366089,6.353242460462956,-0.07720354270935059
6.358242335462956,1.0552116680145265,6.3582424604629555,-0.0732156276702881
6.363242335462957,1.0532191753387452,6.363242460462956,-0.059257925033569345
6.3682423354629565,1.0542154216766357,6.368242460462956,-0.060254903793334966
6.373242335462956,1.0502304363250734,6.373242460462956,-0.06424281883239746
6.378242335462956,1.0542154216766357,6.378242460462956,-0.06224886131286622
6.383242335462956,1.051226682662964,6.383242460462956,-0.06224886131286622
6.388242335462956,1.0412642192840578,6.388242460462956,-0.06224886131286622
6.393242335462956,1.0472416973114014,6.393242460462956,-0.059257925033569345
6.398242335462956,1.0392717266082765,6.3982424604629555,-0.05626698875427247
6.403242335462956,1.0482379436492921,6.403242460462955,-0.05527000999450684
6.4082423354629565,1.0611891460418703,6.408242460462956,-0.047294179916381844
6.413242335462956,1.0611891460418703,6.413242460462956,-0.04031532859802247
6.418242335462956,1.0542154216766357,6.418242460462956,-0.04430324363708497
6.423242335462956,1.0582004070281983,6.423242460462956,-0.04530022239685059
6.428242335462956,1.0532191753387452,6.428242460462956,-0.050285116195678714
6.433242335462956,1.0502304363250734,6.433242460462956,-0.04131230735778809
6.438242335462956,1.0462454509735108,6.438242460462956,-0.04430324363708497
6.443242335462956,1.043256711959839,6.4432424604629555,-0.05128209495544434
6.4482423354629566,1.0572041606903078,6.448242460462956,-0.060254903793334966
6.4532423354629564,1.0382754802703857,6.453242460462956,-0.05826094627380372
6.458242335462956,1.051226682662964,6.458242460462956,-0.0652397975921631
6.463242335462956,1.0492341899871827,6.463242460462956,-0.07022469139099122
6.468242335462956,1.0552116680145265,6.468242460462956,-0.07122167015075684
6.473242335462956,1.0522229290008547,6.473242460462956,-0.0652397975921631
6.478242335462956,1.0502304363250734,6.478242460462956,-0.05527000999450684
6.483242335462956,1.0492341899871827,6.4832424604629555,-0.05128209495544434
6.488242335462957,1.0482379436492921,6.488242460462956,-0.05227907371520997
6.4932423354629565,1.0492341899871827,6.493242460462956,-0.05128209495544434
6.498242335462956,1.0472416973114014,6.498242460462956,-0.06324584007263184
6.503242335462956,1.0502304363250734,6.503242460462956,-0.0652397975921631
6.508242335462956,1.0542154216766357,6.508242460462956,-0.05626698875427247
6.513242335462956,1.0482379436492921,6.513242460462956,-0.05427303123474122
6.518242335462956,1.0532191753387452,6.518242460462956,-0.04928813743591309
6.523242335462956,1.059196653366089,6.5232424604629555,-0.046297201156616216
6.528242335462956,1.0502304363250734,6.528242460462955,-0.04131230735778809
6.5332423354629565,1.056207914352417,6.533242460462956,-0.03832137107849121
6.538242335462956,1.0502304363250734,6.538242460462956,-0.04131230735778809
6.543242335462956,1.0482379436492921,6.543242460462956,-0.034333456039428716
6.548242335462956,1.0572041606903078,6.548242460462956,-0.02336668968200684
6.553242335462956,1.0502304363250734,6.553242460462956,-0.01738481712341309
6.558242335462956,1.0303055095672609,6.558242460462956,0.00753965187072754
6.563242335462956,1.0502304363250734,6.563242460462956,0.01750943946838379
6.568242335462956,1.051226682662964,6.5682424604629555,0.02548526954650879
6.5732423354629566,1.0462454509735108,6.573242460462956,0.035455057144165046
6.5782423354629564,1.0482379436492921,6.578242460462956,0.02548526954650879
6.583242335462956,1.0532191753387452,6.583242460462956,0.00753965187072754
6.588242335462956,1.0482379436492921,6.588242460462956,-0.008412008285522462
6.593242335462956,1.0502304363250734,6.593242460462956,-0.02336668968200684
6.598242335462956,1.0532191753387452,6.598242460462956,-0.02536064720153809
6.603242335462956,1.0572041606903078,6.603242460462956,-0.02735460472106934
6.608242335462956,1.0492341899871827,6.6082424604629555,-0.03832137107849121
6.613242335462957,1.0502304363250734,6.613242460462956,-0.050285116195678714
6.6182423354629565,1.0552116680145265,6.618242460462956,-0.061251882553100594
6.623242335462956,1.0502304363250734,6.623242460462956,-0.0732156276702881
6.628242335462956,1.0552116680145265,6.628242460462956,-0.08318541526794435
6.633242335462956,1.0552116680145265,6.633242460462956,-0.0891672878265381
6.638242335462956,1.051226682662964,6.638242460462956,-0.09514916038513185
6.643242335462956,1.0542154216766357,6.643242460462956,-0.09614613914489747
6.648242335462956,1.0542154216766357,6.6482424604629555,-0.10013405418395997
6.653242335462956,1.0482379436492921,6.653242460462955,-0.09614613914489747
6.6582423354629565,1.0492341899871827,6.658242460462956,-0.11209779930114748
6.663242335462956,1.0532191753387452,6.663242460462956,-0.10312499046325685
6.668242335462956,1.0542154216766357,6.668242460462956,-0.1091068630218506
6.673242335462956,1.051226682662964,6.673242460462956,-0.11807967185974122
6.678242335462956,1.0532191753387452,6.678242460462956,-0.11209779930114748
6.683242335462956,1.051226682662964,6.683242460462956,-0.11508873558044436
6.688242335462956,1.0502304363250734,6.688242460462956,-0.08717333030700684
6.693242335462956,1.051226682662964,6.6932424604629555,0.021497354507446293
6.6982423354629566,1.0462454509735108,6.698242460462956,0.1929777011871338
6.7032423354629564,1.0472416973114014,6.703242460462956,0.42028885841369634
6.708242335462956,1.0542154216766357,6.708242460462956,0.6585667819976807
6.713242335462956,1.0542154216766357,6.713242460462956,0.8160894260406495
6.718242335462956,1.0482379436492921,6.718242460462956,0.748294870376587
6.723242335462956,1.0492341899871827,6.723242460462956,0.4382344760894776
6.728242335462956,1.0472416973114014,6.728242460462956,0.0733402500152588
6.733242335462956,1.0552116680145265,6.7332424604629555,-0.19185610008239748
6.738242335462957,1.051226682662964,6.738242460462956,-0.34539082908630375
6.7432423354629565,1.0462454509735108,6.743242460462956,-0.38925789451599124
6.748242335462956,1.0502304363250734,6.748242460462956,-0.3653304042816163
6.753242335462956,1.0522229290008547,6.753242460462956,-0.3085026149749756
6.758242335462956,1.0472416973114014,6.758242460462956,-0.27061742210388184
6.763242335462956,1.051226682662964,6.763242460462956,-0.21378963279724122
6.768242335462956,1.0472416973114014,6.768242460462956,-0.17391048240661625
6.773242335462956,1.0482379436492921,6.7732424604629555,-0.15496788597106936
6.778242335462956,1.0492341899871827,6.778242460462955,-0.1370222682952881
6.7832423354629565,1.0532191753387452,6.783242460462956,-0.11110082054138185
6.788242335462956,1.051226682662964,6.788242460462956,-0.08019447898864747
6.793242335462956,1.0482379436492921,6.793242460462956,-0.07122167015075684
6.798242335462956,1.051226682662964,6.798242460462956,-0.06823073387145998
6.803242335462956,1.0552116680145265,6.803242460462956,-0.05826094627380372
6.808242335462956,1.0482379436492921,6.808242460462956,-0.05327605247497559
6.813242335462956,1.0462454509735108,6.813242460462956,-0.04430324363708497
6.818242335462956,1.0522229290008547,6.8182424604629555,-0.047294179916381844
6.8232423354629566,1.051226682662964,6.823242460462956,-0.034333456039428716
6.8282423354629564,1.043256711959839,6.828242460462956,-0.022369710922241215
6.833242335462956,1.0492341899871827,6.833242460462956,-0.01738481712341309
6.838242335462956,1.043256711959839,6.838242460462956,-0.009408987045288086
6.843242335462956,1.0342904949188234,6.843242460462956,0.0035517368316650396
6.848242335462956,1.0502304363250734,6.848242460462956,0.015515481948852541
6.853242335462956,1.043256711959839,6.853242460462956,0.023491312026977542
6.858242335462956,1.0472416973114014,6.8582424604629555,0.037449014663696295
6.863242335462957,1.0532191753387452,6.863242460462956,0.053400674819946294
6.8682423354629565,1.0452492046356203,6.868242460462956,0.07633118629455567
6.873242335462956,1.0522229290008547,6.873242460462956,0.0853039951324463
6.878242335462956,1.0472416973114014,6.878242460462956,0.10225263404846192
6.883242335462956,1.0472416973114014,6.883242460462956,0.11421637916564943
6.888242335462956,1.0492341899871827,6.888242460462956,0.14312876319885257
6.893242335462956,1.0462454509735108,6.893242460462956,0.1640653171539307
6.898242335462956,1.0472416973114014,6.8982424604629555,0.1929777011871338
6.903242335462956,1.0452492046356203,6.903242460462955,0.2119202976226807
6.9082423354629565,1.0472416973114014,6.908242460462956,0.25279642677307135
6.913242335462956,1.0482379436492921,6.913242460462956,0.2876906833648682
6.918242335462956,1.0462454509735108,6.918242460462956,0.31859702491760256
6.923242335462956,1.0462454509735108,6.923242460462956,0.34053055763244633
6.928242335462956,1.0502304363250734,6.928242460462956,0.3514973239898682
6.933242335462956,1.0462454509735108,6.933242460462956,0.3614671115875245
6.938242335462956,1.0522229290008547,6.938242460462956,0.3614671115875245
6.943242335462956,1.0502304363250734,6.9432424604629555,0.35747919654846194
6.9482423354629566,1.0482379436492921,6.948242460462956,0.3315577487945557
6.9532423354629564,1.0322980022430421,6.953242460462956,0.2926755771636963
6.958242335462956,1.0502304363250734,6.958242460462956,0.2408326816558838
6.963242335462956,1.0452492046356203,6.963242460462956,0.18699582862854006
6.968242335462956,1.043256711959839,6.968242460462956,0.13415595436096192
6.973242335462956,1.0442529582977296,6.973242460462956,0.05539463233947754
6.978242335462956,1.0482379436492921,6.978242460462956,-0.011402944564819337
6.983242335462956,1.0442529582977296,6.9832424604629555,-0.07421260643005372
6.988242335462957,1.0472416973114014,6.988242460462956,-0.1330343532562256
6.9932423354629565,1.0532191753387452,6.993242460462956,-0.17989235496520997
6.998242335462956,1.0442529582977296,6.998242460462956,-0.21777754783630374
7.003242335462956,1.0522229290008547,7.003242460462956,-0.24369899559021
7.008242335462956,1.051226682662964,7.008242460462956,-0.2566597194671631
7.013242335462956,1.0492341899871827,7.013242460462956,-0.2716144008636475
7.018242335462956,1.0422604656219483,7.018242460462956,-0.267626485824585
7.023242335462956,1.0462454509735108,7.0232424604629555,-0.27759627342224125
7.028242335462956,1.040267972946167,7.028242460462955,-0.2646355495452881
7.0332423354629565,1.051226682662964,7.033242460462956,-0.2576566982269287
7.038242335462956,1.0542154216766357,7.038242460462956,-0.2327322292327881
7.043242335462956,1.0502304363250734,7.043242460462956,-0.23472618675231938
7.048242335462956,1.0552116680145265,7.048242460462956,-0.23871410179138186
7.053242335462956,1.051226682662964,7.053242460462956,-0.2237594203948975
7.058242335462956,1.043256711959839,7.058242460462956,-0.22176546287536625
7.063242335462956,1.0422604656219483,7.063242460462956,-0.2157835903167725
7.068242335462956,1.0502304363250734,7.0682424604629555,-0.2048168239593506
7.0732423354629566,1.0552116680145265,7.073242460462956,-0.18687120628356935
7.0782423354629564,1.0462454509735108,7.078242460462956,-0.17391048240661625
7.083242335462956,1.0472416973114014,7.083242460462956,-0.17789839744567873
7.088242335462956,1.0452492046356203,7.088242460462956,-0.17989235496520997
7.093242335462956,1.0482379436492921,7.093242460462956,-0.1689255886077881
7.098242335462956,1.0552116680145265,7.098242460462956,-0.15596486473083498
7.103242335462956,1.0502304363250734,7.103242460462956,-0.16194673728942874
7.108242335462956,1.0462454509735108,7.1082424604629555,-0.15097997093200685
7.113242335462957,1.0492341899871827,7.113242460462956,-0.14300414085388186
7.1182423354629565,1.0472416973114014,7.118242460462956,-0.13801924705505372
